2245 2181 2418 2374 2315 2005 1981 1933 2097 1755 1693 1675 1685 1900 1839 1470 1605 1262 1166 1322 997 964 915 1098 1033 697 861 483 626 562 524 250 199 369 316 -5 -107 64 -279 -316 -353 -167 -210 -211 -244 -556 -603 -397 -427 -446 -446 -461 -510 -845 -891 -650 -681 -719 -744 -761 -1035 -768 -767 -1046 -1069 -1125 -930 -943 -950 -955 -959 -943 -958 -985 -971 -986 -1022 -1301 -1015 -991 -990 -1011 -1284 -1024 -1282 -1328 -1361 -1380 -1357 -1319 -1285 -1008 -1005 -1002 -1024 -1017 -1302 -1330 -1359 -1353 -1024 -994 -980 -972 -982 -1006 -1007 -1001 -976 -963 -983 -958 -936 -899 -1150 -899 -898 -906 -909 -933 -943 -926 -1139 -1126 -1102 -1124 -901 -1119 -1134 -1116 -1128 -1136 -921 -972 -953 -915 -1097 -1076 -1081 -1115 -1130 -1114 -1098 -1052 -1045 -745 -760 -1053 -1049 -1058 -1053 -1037 -1040 -1045 -1036 -1058 -1025 -756 -760 -741 -760 -1063 -1076 -1063 -1062 -1063 -754 -747 -727 -729 -745 -761 -1040 -1039 -756 -717 -716 -714 -714 -690 -680 -692 -718 -727 -733 -736 -697 -672 -680 -691 -695 -675 -685 -676 -668 -699 -720 -693 -645 -882 -643 -715 -1025 -757 -734 -716 -704 -692 -680 -674 -666 -696 -729 -739 -742 -704 -671 -684 -713 -713 -718 -768 -736 -744 -760 -750 -731 -681 -661 -688 -762 -765 -738 -714 -696 -700 -692 -730 -1058 -1059 -737 -667 -888 -863 -879 -886 -663 -690 -692 -710 -682 -880 -840 -864 -881 -646 -896 -895 -667 -668 -685 -659 -838 -811 -823 -841 -799 -783 -462 -408 -594 -232 -193 -380 -336 2 26 -257 1 -289 -309 -381 -147 -167 -183 -182 -190 -181 -166 -135 -319 -260 77 -79 278 308 302 314 322 317 309 283 281 268 -32 -48 -42 -80 -126 36 -316 -155 -227 -544 -587 -589 -601 -624 -386 -632 -600 -614 -426 -473 -508 -777 -799 -810 -819 -866 -672 -715 -1034 -1071 -1041 -737 -712 -709 -739 -759 -747 -730 -654 -828 -798 -855 -874 -869 -852 -854 -866 -648 -715 -1036 -1049 -1063 -1092 -1123 -1130 -1118 -1100 -1062 -1049 -1054 -1058 -1048 -1026 -1048 -1055 -768 -747 -768 -1066 -1075 -1060 -1041 -1045 -1058 -1048 -1048 -1048 -1046 -1039 -1045 -1044 -1065 -1053 -727 -661 -655 -683 -686 -650 -868 -864 -887 -667 -685 -683 -695 -695 -701 -708 -716 -716 -677 -869 -837 -823 -823 -834 -850 -875 -864 -844 -806 -778 -457 -638 -531 -136 55 286 247 438 876 1068 1004 1247 1818 2153 2286 2713 3453 3898 4135 4221 4213 4148 3756 3566 3288 2812 2424 1444 689 256 -234 -643 -1324 -1667 -2447 -3295 -4183 -4298 -4556 -4912 -4927 -4902 -4522 -4325 -4241 -4249 -4442 -4038 -3814 -3494 -3412 -2753 -2638 -2355 -2087 -1875 -1425 -1265 -1360 -946 -1141 -1135 -1121 -1088 -761 -646 -505 -618 -239 -344 29 105 85 19 -284 -366 -181 -247 -535 -589 -625 -607 -546 -224 -183 -178 -161 -378 -288 28 62 77 100 107 115 114 94 36 -269 -301 -313 -287 -270 -262 2 51 105 110 90 92 100 113 125 -128 -109 -73 -56 -95 94 48 63 -110 -46 -53 -93 -112 124 -114 -52 283 344 363 356 319 291 302 326 352 375 139 162 171 163 170 164 173 181 175 136 130 168 234 532 525 547 554 533 527 575 631 608 578 565 584 582 570 588 609 387 414 433 467 494 778 783 510 773 799 835 838 847 853 895 674 685 709 726 761 1045 1051 1084 1079 1141 1147 1148 946 928 935 969 996 1291 1312 1384 1401 1357 1343 1356 1183 1231 1272 1553 1577 1620 1642 1659 1417 1413 1467 1527 1810 1851 1863 1891 1918 1720 2052 2072 2065 2073 2102 2112 2099 2108 2139 2152 1950 1997 2035 2044 2319 2316 2310 2328 2355 2372 2392 2426 2185 2182 2183 2195 2210 2246 2243 2277 2278 2243 2201 2205 2211 2241 2243 2234 2207 2419 2392 2391 2389 2364 2315 2306 2314 2014 1984 1922 2123 2101 2063 1753 1674 1814 1474 1438 1660 1587 1269 1203 1371 1013 906 1079 1072 1060 732 652 809 470 399 603 543 216 159 341 -15 -116 82 31 -271 -321 -380 -164 -193 -235 -531 -623 -462 -812 -878 -643 -642 -644 -668 -692 -741 -1027 -767 -753 -1030 -1056 -1076 -1108 -904 -939 -936 -920 -931 -944 -942 -942 -958 -1015 -1316 -1332 -1347 -1378 -1392 -1401 -1395 -1389 -1392 -1365 -1344 -1335 -1332 -1337 -1348 -1380 -1401 -1372 -1352 -1374 -1386 -1398 -1408 -1408 -1385 -1387 -1404 -1176 -1195 -1202 -1198 -1203 -1197 -1192 -1173 -1154 -1403 -1376 -1377 -1382 -1154 -1180 -1185 -1174 -1173 -1165 -1178 -1184 -1170 -1379 -1369 -1156 -1207 -1277 -1550 -1273 -1211 -1401 -1350 -1349 -1363 -1377 -1377 -1368 -1373 -1377 -1351 -1331 -1318 -1322 -1335 -1331 -1331 -1322 -1318 -1324 -1329 -1323 -1313 -1293 -1291 -1320 -1317 -1307 -1294 -1296 -1023 -1024 -1281 -1018 -1009 -1018 -1016 -998 -1001 -982 -977 -986 -955 -974 -965 -959 -941 -944 -938 -962 -972 -966 -931 -1121 -1097 -1084 -1087 -1087 -1124 -1140 -1114 -1092 -1084 -1090 -1088 -1085 -1070 -1083 -1078 -1079 -1084 -1095 -1120 -1150 -930 -979 -977 -926 -1114 -1034 -761 -1054 -1096 -1114 -1093 -1076 -1079 -1098 -1096 -1068 -1044 -1030 -759 -746 -747 -746 -763 -1033 -1038 -1043 -1047 -1051 -1076 -1081 -1041 -734 -743 -1033 -1040 -750 -742 -730 -726 -737 -765 -1040 -1066 -1070 -1049 -761 -703 -680 -670 -681 -684 -700 -705 -716 -716 -702 -672 -656 -647 -888 -875 -857 -871 -860 -869 -860 -835 -838 -871 -892 -860 -802 -472 -428 -409 -402 -404 -636 -588 -536 -214 -165 -379 -334 -274 14 73 108 -124 124 82 29 5 -272 -278 -263 6 21 46 -123 -33 285 339 176 247 538 578 583 544 241 229 232 212 189 162 140 370 323 270 -51 -124 77 -262 -345 -147 -166 -201 -223 -238 -521 -530 -531 -533 -553 -594 -610 -605 -390 -467 -506 -818 -822 -835 -852 -878 -654 -680 -678 -660 -889 -856 -839 -846 -851 -837 -826 -822 -842 -829 -821 -512 -506 -831 -882 -662 -670 -687 -659 -659 -673 -670 -677 -678 -690 -674 -665 -678 -664 -657 -892 -651 -668 -691 -685 -873 -824 -508 -769 -804 -821 -828 -822 -793 -785 -779 -781 -783 -779 -493 -462 -478 -785 -814 -795 -807 -830 -836 -825 -831 -838 -817 -782 -496 -506 -771 -769 -775 -820 -857 -819 -466 -386 -600 -571 -532 -203 -359 53 -56 131 577 490 691 951 1251 1826 2167 2292 2721 3422 3849 4121 4210 4200 4154 3829 3955 3707 3039 2435 1730 998 568 -278 -489 -919 -1412 -2348 -3200 -3947 -4391 -4689 -4606 -4914 -4915 -4509 -4273 -4044 -4036 -4083 -4002 -3779 -3653 -3033 -2691 -2615 -2314 -1773 -1466 -1211 -1006 -1110 -1026 -734 -748 -1039 -755 -879 -450 -532 -150 -355 -364 -303 91 -50 -10 -36 -115 38 -308 -142 -201 -217 -247 -212 -152 -350 -302 3 53 95 115 -118 -104 -116 -123 112 81 64 66 54 51 70 101 92 89 -106 -81 -103 -66 -24 -20 -7 283 338 341 328 334 347 351 354 341 345 363 141 148 182 158 158 153 185 198 207 213 223 199 175 178 208 243 522 533 529 523 252 238 228 525 536 568 576 597 607 598 583 596 626 397 615 561 534 553 393 450 470 450 423 410 446 485 494 781 787 791 802 820 842 884 659 671 694 691 697 674 675 699 748 1037 1052 1060 1083 1104 1122 896 910 908 909 922 955 978 1004 1285 1290 1288 1327 1394 1179 1187 1212 1247 1279 1555 1562 1592 1631 1662 1459 1508 1808 1851 1852 1846 1865 1888 1893 1901 1677 1723 1759 1771 1765 1761 1791 2094 2144 1943 1997 2039 2045 2041 2045 2321 2373 2406 2397 2391 2393 2396 2406 2183 2246 2572 2586 2292 2240 2224 2266 2591 2646 2645 2631 2565 2303 2583 2593 2598 2596 2601 2601 2303 2246 2229 2214 2205 2178 2404 2366 2317 2020 1983 2168 2114 1789 1674 1862 1869 1855 1794 1429 1589 1236 1199 1383 1303 989 934 1096 756 686 889 824 499 413 601 516 192 132 319 -7 -84 83 21 -295 -359 -192 -536 -567 -591 -625 -405 -445 -486 -803 -850 -878 -643 -685 -731 -1034 -1071 -1069 -1039 -1029 -1070 -1140 -939 -963 -958 -962 -951 -962 -958 -963 -1008 -1323 -1346 -1310 -1019 -1020 -1288 -1284 -1303 -1335 -1331 -1332 -1341 -1367 -1359 -1365 -1345 -1346 -1354 -1379 -1406 -1376 -1330 -1303 -1297 -1300 -1317 -1326 -1321 -1336 -1375 -1406 -1197 -1219 -1163 -1313 -984 -996 -998 -1010 -996 -989 -1001 -990 -1006 -1002 -986 -970 -945 -949 -944 -949 -936 -937 -933 -941 -944 -964 -964 -981 -993 -964 -960 -960 -984 -968 -982 -959 -953 -958 -954 -970 -963 -981 -986 -1000 -1284 -1334 -1331 -1002 -899 -1070 -759 -761 -1086 -899 -922 -901 -1113 -1080 -1047 -1033 -1025 -758 -1028 -1033 -1037 -1065 -1084 -1077 -1073 -1069 -1079 -1072 -1111 -897 -1145 -902 -910 -913 -903 -1138 -1088 -1028 -729 -734 -740 -754 -757 -751 -757 -1027 -1029 -1032 -1030 -738 -696 -681 -681 -684 -685 -698 -717 -748 -760 -742 -727 -706 -692 -699 -709 -720 -722 -704 -707 -709 -709 -709 -700 -684 -696 -725 -737 -734 -687 -891 -647 -706 -746 -746 -752 -750 -721 -687 -688 -711 -707 -703 -693 -721 -705 -691 -672 -656 -654 -680 -669 -657 -647 -890 -876 -881 -887 -867 -877 -893 -642 -874 -865 -874 -892 -882 -642 -654 -652 -646 -889 -864 -868 -893 -895 -888 -890 -646 -644 -885 -851 -782 -467 -469 -459 -457 -432 -600 -526 -209 -147 -362 -312 -262 18 51 95 125 -96 -52 -39 -43 -73 -127 98 100 93 112 -93 -21 332 172 235 543 581 601 605 635 410 454 442 393 577 522 237 205 141 319 -7 -105 121 125 110 29 -312 -381 -175 -227 -250 -539 -554 -547 -535 -513 -241 -536 -624 -488 -817 -840 -831 -832 -877 -680 -708 -697 -690 -707 -719 -706 -684 -665 -641 -884 -870 -846 -837 -830 -818 -819 -830 -860 -641 -688 -696 -702 -712 -708 -725 -747 -1037 -1052 -1065 -1051 -733 -687 -669 -663 -895 -891 -894 -668 -674 -678 -700 -714 -721 -718 -720 -707 -697 -704 -720 -727 -717 -694 -670 -653 -881 -877 -849 -853 -845 -838 -838 -851 -861 -872 -882 -863 -842 -818 -821 -815 -822 -511 -469 -481 -509 -500 -492 -478 -464 -442 -608 -256 -384 12 -43 170 635 819 1027 973 1215 1503 2094 2219 2896 3372 3853 4162 3986 4175 3832 3731 3566 3300 3143 2589 1885 1145 153 -249 -751 -1242 -1752 -2644 -3214 -4192 -4347 -4902 -4826 -5210 -5016 -5121 -4594 -4323 -4476 -4430 -4018 -3737 -3639 -3064 -2706 -2586 -1961 -1854 -1554 -1314 -1088 -642 -804 -777 -774 -508 -465 -388 -553 -190 -326 33 112 -93 -84 -114 109 72 30 -288 -350 -152 -197 -231 -256 -228 -177 -367 -305 -259 25 74 113 -96 -61 -45 -68 -100 -118 124 109 85 49 21 23 13 17 48 110 -86 -70 -76 -69 -44 -24 256 -2 -22 -30 -24 -10 -11 -2 -17 -23 -21 258 261 267 264 -18 -78 -56 269 327 128 380 128 378 362 359 366 363 381 148 162 201 224 250 218 203 182 199 187 193 195 211 197 201 218 231 240 236 230 225 545 582 624 610 615 604 614 384 398 419 439 471 491 783 795 838 844 845 840 846 873 663 717 726 748 767 1049 1070 1115 1117 1123 897 910 933 975 1288 1303 1298 1301 1289 1300 1349 1166 1218 1545 1598 1599 1583 1614 1660 1443 1494 1487 1511 1796 1877 1906 1675 1705 1720 1731 1768 2057 2063 2085 2114 2151 1936 1980 1998 1990 2011 2025 2337 2387 2419 2425 2423 2176 2176 2180 2226 2264 2264 2237 2246 2267 2268 2265 2289 2573 2590 2590 2600 2612 2617 2637 2646 2650 2632 2593 2560 2293 2269 2246 2241 2258 2247 2197 2381 2326 2004 1962 1970 1987 1995 1961 2119 1773 1687 1889 1845 1533 1477 1408 1601 1272 1232 1183 1370 1300 932 1087 745 672 878 813 478 417 608 536 200 143 342 289 -49 122 50 -272 -328 -140 -211 -517 -564 -608 -401 -413 -429 -471 -500 -820 -831 -864 -888 -670 -681 -688 -728 -744 -1040 -1050 -1064 -1096 -1116 -909 -966 -987 -1287 -1287 -1006 -953 -933 -941 -955 -1019 -1325 -1362 -1338 -1308 -1300 -1283 -1292 -1296 -1021 -1010 -1293 -1304 -1324 -1305 -1301 -1322 -1365 -1386 -1386 -1386 -1360 -1365 -1370 -1378 -1364 -1351 -1355 -1354 -1331 -1308 -1295 -1292 -1328 -1343 -1383 -1396 -1399 -1406 -1161 -1175 -1164 -1385 -1355 -1354 -1337 -1289 -1284 -1331 -1368 -1393 -1380 -1327 -1023 -986 -984 -977 -968 -949 -965 -1011 -1295 -1297 -1009 -997 -975 -958 -958 -968 -971 -962 -948 -938 -940 -933 -931 -902 -1145 -910 -912 -1136 -1106 -1079 -1067 -1075 -1110 -906 -932 -899 -1091 -1047 -1028 -1050 -1075 -1089 -1086 -1067 -1047 -738 -730 -742 -755 -763 -763 -1041 -1056 -1031 -756 -719 -702 -681 -672 -673 -677 -656 -657 -685 -679 -681 -684 -714 -687 -688 -677 -663 -655 -875 -876 -642 -642 -896 -644 -895 -891 -885 -884 -648 -888 -648 -890 -861 -835 -840 -827 -835 -831 -851 -870 -882 -645 -882 -868 -859 -828 -831 -839 -854 -886 -643 -645 -654 -854 -816 -512 -480 -462 -491 -505 -792 -795 -787 -781 -511 -770 -775 -488 -469 -427 -419 -445 -461 -463 -482 -482 -503 -771 -779 -779 -501 -774 -800 -799 -497 -464 -442 -432 -476 -506 -772 -786 -811 -815 -814 -776 -454 -622 -560 -553 -567 -599 -545 -218 -143 -349 -306 -276 33 98 -108 -48 260 296 313 350 145 148 356 283 -21 -23 283 351 158 232 576 424 784 860 872 876 882 876 890 672 678 876 806 510 474 434 623 558 212 133 329 272 -58 127 36 -304 -335 -377 -146 -148 -165 -210 -206 -214 -240 -248 -520 -572 -622 -411 -443 -472 -772 -791 -845 -878 -881 -864 -834 -828 -807 -780 -492 -771 -776 -505 -508 -509 -507 -491 -481 -502 -810 -846 -869 -892 -652 -661 -654 -887 -871 -891 -650 -894 -852 -850 -871 -878 -874 -870 -862 -854 -854 -844 -857 -885 -641 -660 -687 -697 -680 -644 -870 -880 -895 -863 -838 -813 -804 -819 -836 -868 -856 -818 -794 -799 -840 -870 -667 -675 -674 -652 -887 -867 -869 -875 -839 -796 -781 -771 -512 -499 -485 -451 -396 -558 -221 -172 -307 125 379 384 854 1031 939 1173 1495 2123 2231 2888 3373 3583 4129 4212 4180 4096 3759 3900 3671 3044 2477 1732 946 202 -197 -664 -1345 -1853 -2274 -3400 -4124 -4301 -4880 -4815 -5240 -5022 -5143 -4909 -4667 -4309 -4276 -4410 -4120 -3486 -3374 -2741 -2651 -2315 -1684 -1592 -1325 -1112 -687 -804 -452 -476 -788 -796 -456 -599 -224 -356 15 121 -61 -28 -41 -66 121 36 -297 -338 -384 -136 -171 -178 -160 -346 -304 -274 44 90 -96 -78 -93 -72 -45 -18 -26 -68 -117 65 76 58 97 -124 -119 94 86 110 124 -49 -5 -6 -15 -7 272 276 276 265 296 287 308 313 320 313 333 359 146 169 168 202 208 199 188 212 232 528 521 540 524 537 523 558 610 617 609 547 542 591 616 577 551 582 393 458 504 803 826 813 783 484 473 478 493 505 796 821 862 865 879 650 656 882 862 881 653 697 715 716 730 760 1029 1058 1101 1126 1114 1101 1137 917 943 971 1006 1283 1283 1294 1297 1013 1007 1304 1377 1175 1193 1211 1272 1580 1568 1562 1584 1630 1419 1453 1433 1449 1483 1805 1868 1896 1685 1717 1765 1765 1784 1783 2056 1789 2066 2083 2077 2096 2118 1926 1960 1967 1967 2007 2022 2014 1961 1984 2032 2317 2375 2410 2430 2418 2378 2355 2414 2232 2288 2273 2287 2285 2282 2580 2594 2298 2252 2259 2576 2600 2617 2599 2577 2258 2224 2254 2288 2303 2247 2222 2202 2417 2423 2429 2428 2420 2376 2347 2314 2006 1932 2140 2105 2053 1747 1703 1912 1856 1814 1503 1656 1550 1187 1364 1299 971 906 1107 1080 1030 705 872 798 487 424 628 550 255 187 365 295 -47 101 21 -301 -363 -147 -191 -253 -559 -567 -592 -640 -424 -446 -478 -791 -828 -822 -818 -810 -833 -872 -642 -658 -687 -722 -746 -760 -1048 -1103 -1134 -1133 -903 -914 -918 -959 -991 -996 -1001 -1023 -1295 -1290 -998 -971 -937 -931 -920 -953 -1024 -1360 -1370 -1295 -1005 -1008 -1017 -988 -935 -906 -948 -997 -1024 -975 -1136 -1101 -1114 -1137 -901 -908 -905 -922 -977 -992 -932 -1106 -1110 -1132 -904 -905 -897 -915 -922 -932 -941 -951 -945 -938 -898 -1119 -1101 -1090 -1093 -1096 -1120 -1129 -1113 -1102 -1106 -1093 -1102 -1118 -1127 -1114 -1094 -1072 -1059 -1049 -1050 -1033 -741 -705 -712 -707 -716 -737 -743 -719 -697 -684 -697 -708 -701 -698 -702 -688 -687 -691 -690 -701 -713 -707 -680 -661 -646 -890 -642 -643 -660 -661 -650 -892 -687 -723 -673 -837 -819 -839 -870 -881 -874 -874 -843 -862 -877 -864 -857 -878 -891 -877 -836 -795 -794 -804 -795 -499 -474 -496 -504 -497 -493 -457 -448 -477 -499 -500 -769 -503 -467 -442 -445 -453 -432 -448 -461 -448 -416 -416 -461 -503 -773 -484 -433 -390 -396 -390 -388 -392 -420 -469 -793 -810 -774 -433 -395 -620 -572 -599 -391 -439 -453 -477 -430 -390 -387 -392 -638 -599 -579 -613 -634 -610 -571 -562 -567 -579 -607 -637 -625 -623 -391 -633 -579 -256 -222 -219 -223 -203 -177 -160 -130 -367 -351 -338 -275 54 95 -121 -99 -69 -53 -66 -69 -30 266 275 272 -17 -106 84 64 60 -108 283 147 243 607 632 636 402 446 467 463 461 472 465 440 419 391 615 553 226 157 339 292 259 -50 120 38 16 -266 -309 -358 -131 -187 -193 -181 -131 -140 -193 -244 -548 -599 -419 -461 -482 -781 -814 -812 -831 -846 -823 -799 -821 -796 -502 -451 -445 -442 -443 -417 -638 -620 -637 -390 -392 -414 -421 -416 -438 -470 -506 -789 -795 -791 -772 -501 -779 -770 -497 -491 -491 -504 -776 -499 -478 -769 -820 -813 -503 -508 -792 -800 -790 -811 -855 -875 -892 -859 -851 -802 -769 -772 -775 -511 -509 -784 -836 -872 -817 -779 -475 -500 -778 -484 -423 -391 -628 -622 -416 -399 -636 -386 -426 -464 -472 -421 -605 -560 -516 -223 -158 -323 28 -63 149 620 807 725 936 1154 1639 1688 2026 2483 3178 3637 3810 4356 4231 4262 4244 4410 3993 3955 3212 2834 2123 1328 596 55 -579 -688 -1228 -2010 -3119 -3550 -3974 -4305 -4500 -4572 -4734 -4279 -4055 -4186 -3971 -4202 -3794 -3511 -3389 -2791 -2455 -2393 -2096 -1800 -1256 -1284 -1104 -663 -784 -487 -769 -795 -507 -453 -629 -232 -285 -113 -5 359 161 147 353 285 -7 -48 -114 69 6 -298 -316 -302 -258 22 78 -99 -56 -20 291 319 286 256 264 -15 -45 -56 -74 -79 -102 -61 -31 -94 -120 -116 -72 -41 -8 256 276 345 380 366 350 381 164 149 329 273 294 376 168 192 201 175 135 138 165 181 171 186 228 516 536 249 208 239 240 525 576 599 612 616 619 613 615 613 586 559 595 637 423 430 465 478 471 465 434 438 440 448 462 504 784 832 852 848 846 873 860 873 888 643 656 690 705 699 701 699 689 695 728 1027 1037 1026 760 1026 1061 1106 908 964 957 944 960 1015 1324 1302 1288 1300 1347 1403 1193 1171 1402 1405 1153 1190 1239 1538 1597 1635 1621 1620 1630 1621 1609 1659 1449 1796 1915 1715 1715 1731 1748 1729 1737 1719 1718 1763 2058 2107 2161 1943 1977 2037 2313 2316 2305 2327 2314 2043 2029 2033 2356 2410 2199 2239 2276 2271 2273 2294 2303 2283 2244 2234 2279 2570 2282 2226 2225 2261 2285 2560 2293 2267 2204 2431 2196 2203 2216 2210 2201 2414 2343 2014 1956 2153 2100 2075 2052 1733 1665 1850 1808 1499 1641 1260 1161 1344 1312 1005 937 1124 1060 741 680 888 832 786 434 557 159 333 273 -28 -127 37 -257 -306 -355 -139 -187 -530 -393 -493 -831 -844 -844 -837 -813 -794 -835 -655 -708 -747 -1057 -1070 -1069 -1118 -1119 -1141 -898 -909 -919 -1144 -1141 -1148 -928 -967 -1011 -1295 -1018 -993 -1014 -1286 -1017 -994 -957 -935 -980 -1293 -1345 -1393 -1180 -1407 -1335 -1024 -1017 -1291 -1311 -1313 -1327 -1356 -1342 -1327 -1336 -1348 -1325 -1310 -1016 -982 -973 -999 -1309 -1299 -1021 -1003 -978 -939 -939 -965 -981 -961 -963 -994 -1021 -1293 -1292 -1306 -1011 -941 -925 -978 -1013 -999 -979 -980 -981 -993 -1007 -991 -989 -982 -996 -1016 -1004 -960 -904 -1134 -918 -957 -921 -1137 -1122 -1144 -919 -914 -898 -1149 -1124 -1108 -1132 -1142 -1116 -1063 -1057 -766 -740 -729 -745 -1030 -1065 -1063 -1046 -757 -719 -728 -716 -703 -693 -698 -710 -730 -738 -748 -732 -707 -678 -666 -660 -646 -892 -660 -709 -700 -692 -682 -697 -705 -697 -714 -704 -670 -895 -644 -684 -716 -727 -724 -676 -646 -672 -708 -705 -677 -671 -644 -850 -834 -850 -872 -889 -880 -873 -888 -657 -699 -717 -715 -703 -699 -716 -764 -759 -700 -888 -870 -868 -862 -892 -654 -865 -825 -821 -881 -675 -894 -835 -815 -821 -828 -827 -811 -803 -793 -776 -786 -824 -843 -840 -818 -816 -835 -829 -815 -822 -829 -810 -796 -779 -790 -832 -871 -863 -821 -793 -487 -437 -398 -629 -561 -253 -220 -190 -184 -184 -151 -336 -280 -261 17 52 69 49 -260 -321 -288 21 49 54 30 -257 12 83 -84 -12 320 149 194 237 538 593 601 585 587 592 561 236 187 162 382 334 313 284 -32 -117 73 11 -301 -377 -159 -175 -158 -175 -246 -550 -556 -556 -566 -603 -629 -415 -472 -786 -842 -654 -684 -896 -848 -829 -828 -823 -844 -884 -872 -848 -826 -812 -778 -478 -473 -488 -490 -504 -788 -803 -835 -881 -656 -668 -676 -648 -883 -878 -850 -822 -801 -788 -788 -794 -787 -781 -507 -492 -505 -776 -501 -512 -852 -878 -866 -875 -872 -879 -866 -849 -860 -864 -891 -881 -874 -859 -840 -827 -820 -828 -808 -779 -773 -782 -813 -848 -852 -872 -882 -895 -876 -820 -819 -808 -835 -801 -785 -771 -509 -772 -493 -460 -399 -583 -540 -248 -168 -282 -74 137 394 837 1032 970 1187 1441 1761 2399 2520 2947 3656 3813 4032 4067 4053 4012 4138 3720 3709 3012 2645 1899 1136 234 -296 -449 -1099 -1626 -2399 -2979 -3573 -4147 -4355 -4458 -4270 -4264 -4365 -4177 -4102 -4195 -4202 -3813 -3545 -3435 -3106 -2546 -2262 -1972 -1706 -1465 -1257 -1334 -950 -1132 -1084 -1032 -743 -701 -866 -450 -558 -191 -347 3 87 -117 -102 -97 -118 52 -315 -369 -166 -233 -535 -559 -547 -532 -200 -374 5 96 -102 -82 -65 -52 -73 -82 -127 79 57 59 31 21 34 40 14 9 15 60 98 -123 -91 -56 -97 -122 -80 -28 -12 -3 -19 -22 -43 -24 -16 -2 267 272 258 -8 -1 292 295 291 305 368 378 367 344 345 345 365 352 355 139 163 185 188 203 181 162 192 544 604 596 575 569 594 587 564 565 390 464 492 490 494 511 771 505 507 770 778 811 852 889 660 718 737 732 729 697 681 685 675 697 737 749 753 1047 1086 1119 1126 1116 1104 1105 1112 1131 921 942 934 976 1283 1319 1320 1328 1343 1367 1392 1187 1211 1216 1206 1237 1271 1573 1642 1465 1510 1484 1420 1591 1614 1483 1829 1872 1668 1699 1701 1695 1709 1732 1785 2100 2155 2174 1943 1950 1991 2005 2027 2019 2318 2341 2365 2407 2183 2194 2212 2233 2228 2220 2252 2291 2293 2302 2589 2626 2638 2617 2597 2601 2573 2297 2564 2568 2580 2295 2268 2248 2218 2188 2427 2421 2428 2390 2325 2306 2047 1995 1958 1921 2143 2085 1767 1720 1908 1853 1816 1508 1443 1594 1217 1350 1012 929 1112 1025 687 838 794 505 435 617 560 225 167 316 -46 114 62 46 -259 -295 -339 -191 -537 -608 -394 -429 -481 -786 -849 -681 -681 -658 -663 -705 -745 -1029 -1052 -1085 -1118 -1122 -1122 -1136 -1141 -1139 -900 -937 -974 -1003 -1003 -1016 -1296 -1316 -1334 -1327 -1307 -1281 -1287 -1310 -1342 -1353 -1327 -1309 -1314 -1299 -1286 -1316 -1355 -1365 -1350 -1360 -1366 -1369 -1375 -1408 -1189 -1169 -1395 -1382 -1179 -1195 -1156 -1364 -1332 -1353 -1368 -1381 -1390 -1373 -1372 -1358 -1303 -1287 -1295 -1314 -1346 -1362 -1309 -1303 -1289 -1307 -1304 -1316 -1331 -1345 -1330 -1295 -1304 -1317 -1300 -1332 -1350 -1362 -1369 -1330 -1331 -1312 -1286 -1298 -1329 -1336 -1312 -1292 -1023 -1294 -1015 -995 -1001 -1006 -977 -975 -963 -950 -945 -939 -960 -968 -952 -902 -910 -916 -922 -948 -968 -950 -955 -962 -944 -946 -916 -921 -932 -973 -965 -939 -918 -925 -918 -940 -952 -955 -921 -902 -1144 -1145 -1151 -918 -937 -950 -916 -902 -1149 -1135 -1137 -1145 -902 -1141 -1102 -1094 -1107 -1126 -1136 -1137 -1113 -1082 -1076 -1091 -1081 -1035 -763 -749 -740 -743 -1040 -1066 -1056 -1041 -756 -747 -751 -761 -756 -761 -753 -767 -1034 -1042 -1036 -1032 -1051 -1091 -1109 -1094 -1098 -1097 -1086 -1068 -1040 -744 -739 -744 -748 -742 -749 -752 -755 -761 -1033 -1050 -1065 -1058 -1029 -733 -711 -715 -719 -729 -730 -743 -1033 -1041 -1041 -1036 -1036 -1043 -756 -730 -695 -690 -680 -656 -650 -643 -865 -842 -831 -801 -772 -487 -449 -411 -401 -400 -416 -400 -385 -594 -561 -531 -201 -377 -329 -302 -292 -296 -262 31 34 1 -306 -315 -273 21 68 -112 -35 286 346 156 218 246 250 521 528 548 579 574 516 166 338 286 -4 259 289 287 257 -69 82 -277 -352 -147 -202 -524 -557 -579 -591 -598 -616 -604 -606 -622 -413 -469 -506 -783 -819 -851 -649 -689 -735 -1063 -1096 -1095 -761 -704 -654 -864 -851 -861 -859 -864 -642 -870 -829 -796 -785 -798 -843 -863 -888 -885 -653 -669 -711 -747 -742 -715 -684 -671 -682 -686 -678 -695 -705 -711 -704 -679 -684 -703 -731 -753 -760 -765 -744 -721 -694 -663 -655 -682 -708 -718 -716 -695 -686 -672 -666 -668 -689 -696 -656 -884 -866 -885 -672 -722 -726 -713 -693 -674 -671 -645 -886 -876 -844 -835 -827 -854 -895 -662 -894 -866 -830 -777 -436 -389 -605 -244 -275 -3 517 440 861 1068 1003 1257 1818 2151 2296 2739 3210 3580 3786 4123 4111 3751 3866 3668 3352 2883 2021 1582 844 -110 -395 -1058 -1212 -1758 -2520 -3625 -4210 -4279 -4545 -4926 -4769 -4745 -4570 -4300 -4389 -4406 -4428 -4027 -3738 -3654 -3330 -2727 -2632 -2024 -1697 -1440 -1209 -1003 -1086 -733 -718 -1040 -1095 -1065 -669 -483 -596 -224 -151 -337 -280 2 21 -284 -375 -208 -515 -582 -393 -435 -460 -440 -385 -594 -561 -252 -182 -381 -342 -318 -293 3 -259 -302 -361 -153 -179 -176 -142 -138 -157 -163 -175 -149 -368 -353 -346 -326 -296 -271 -263 0 28 43 51 49 54 30 5 -276 -307 -334 -327 -290 19 24 5 25 66 84 79 95 111 97 95 101 -118 -97 -96 -92 -65 -75 -48 -11 282 305 315 297 266 266 269 337 382 137 136 142 160 166 165 180 217 221 213 215 247 254 228 208 191 197 250 614 405 404 628 393 445 472 486 498 499 492 501 796 842 889 656 677 674 678 737 1052 1077 1059 1038 1028 1034 1065 1090 1122 1146 901 944 999 1007 1018 1309 1353 1362 1343 1326 1342 1373 1375 1153 1201 1238 1270 1557 1604 1660 1465 1802 1863 1886 1857 1830 1841 1895 1691 1747 2062 2076 2084 2107 2151 1938 1953 1950 1953 1986 2014 2039 2327 2365 2385 2386 2388 2410 2184 2206 2240 2265 2262 2239 2258 2284 2292 2302 2571 2572 2288 2253 2236 2249 2268 2283 2268 2236 2228 2226 2199 2417 2370 2309 2035 2003 1946 2139 2101 1777 1674 1869 1806 1475 1662 1600 1265 1172 1357 1297 974 941 1118 1031 673 840 507 434 601 536 230 145 287 -59 -91 -85 -87 107 45 -290 -368 -184 -522 -587 -631 -403 -444 -469 -500 -805 -884 -657 -649 -666 -729 -1047 -1065 -1108 -1137 -902 -905 -932 -952 -988 -987 -983 -994 -1002 -1021 -1006 -1308 -1301 -1296 -1000 -993 -1008 -1296 -1317 -1328 -1346 -1326 -1307 -1290 -1301 -1300 -1327 -1318 -1315 -1317 -1324 -1332 -1345 -1348 -1356 -1380 -1155 -1404 -1395 -1408 -1379 -1368 -1345 -1357 -1397 -1200 -1218 -1193 -1376 -1335 -1316 -1305 -1298 -1311 -1331 -1334 -1353 -1334 -1333 -1326 -1333 -1328 -1322 -1302 -1011 -1289 -1313 -1315 -1303 -995 -953 -962 -958 -948 -942 -948 -966 -975 -965 -983 -988 -958 -914 -1135 -1130 -1139 -917 -942 -942 -950 -958 -940 -914 -1145 -1107 -1088 -1085 -1071 -1049 -1043 -1043 -1033 -1030 -1038 -1033 -1041 -1037 -1031 -1034 -1045 -1043 -1035 -1025 -756 -736 -714 -718 -734 -734 -723 -732 -745 -731 -691 -891 -881 -885 -651 -677 -678 -666 -668 -660 -892 -890 -891 -653 -666 -680 -686 -679 -652 -644 -642 -650 -647 -642 -891 -854 -818 -798 -791 -799 -811 -809 -812 -789 -773 -785 -833 -857 -847 -809 -776 -783 -775 -505 -496 -778 -797 -804 -794 -789 -781 -506 -504 -509 -486 -452 -463 -461 -463 -450 -468 -498 -504 -496 -512 -786 -794 -793 -789 -795 -780 -487 -456 -449 -437 -428 -426 -456 -473 -483 -473 -449 -452 -464 -477 -497 -495 -473 -430 -414 -414 -400 -389 -422 -437 -421 -632 -602 -576 -541 -235 -247 -529 -227 -378 -301 -266 23 48 80 123 -69 -26 -6 260 279 298 328 333 297 -35 -83 -69 260 313 137 222 570 390 450 491 500 769 776 790 808 843 845 817 500 452 426 626 565 250 180 365 279 -52 -125 64 2 -294 -351 -376 -163 -187 -181 -140 -376 -135 -175 -238 -543 -592 -617 -404 -450 -771 -809 -836 -845 -866 -657 -656 -869 -829 -811 -805 -810 -824 -816 -819 -798 -788 -504 -476 -471 -506 -776 -504 -509 -794 -826 -825 -829 -841 -836 -832 -826 -820 -788 -789 -791 -782 -507 -477 -472 -483 -511 -781 -800 -782 -785 -816 -835 -837 -841 -826 -494 -443 -427 -449 -465 -491 -511 -507 -499 -508 -771 -496 -479 -455 -442 -448 -461 -479 -488 -494 -771 -805 -805 -816 -824 -834 -815 -815 -801 -795 -833 -821 -820 -798 -772 -477 -437 -386 -542 -186 -295 105 318 601 884 1140 1342 1564 1863 1928 2287 2731 3212 3871 3778 3807 3766 3737 3899 3674 3332 2845 1968 1243 776 77 -508 -960 -1425 -1967 -2939 -3533 -4437 -4523 -4755 -5140 -5012 -5030 -5134 -4912 -4701 -4672 -4633 -4440 -4098 -3505 -3433 -3081 -2472 -2360 -1784 -1497 -1226 -978 -1059 -688 -663 -688 -711 -683 -857 -498 -632 -252 -142 -322 -272 -258 -297 -359 -143 -189 -247 -566 -625 -409 -424 -440 -412 -617 -551 -248 -195 -146 -347 -310 -267 0 1 -262 19 -267 -319 -357 -358 -347 -313 -296 -279 -292 -291 -276 -258 19 70 -111 -74 -48 -75 -108 119 -124 -121 -127 -113 -101 -88 -89 -75 -39 -4 270 -10 -26 -50 -43 -41 -1 279 311 293 283 297 325 352 142 147 168 166 168 142 149 137 172 209 235 229 225 239 248 247 227 217 219 213 244 536 528 519 529 252 241 208 188 242 575 410 462 462 417 396 420 470 507 787 792 799 821 852 659 702 713 697 684 704 764 1070 1092 1071 1024 734 734 1058 1145 959 998 1281 1023 1293 1329 1355 1379 1156 1192 1227 1253 1547 1585 1602 1620 1637 1658 1421 1659 1418 1487 1841 1909 1909 1915 1912 1898 1911 1674 1714 1767 2077 2145 1925 1920 1924 1925 1970 1977 1949 1981 2304 2359 2396 2181 2222 2219 2218 2233 2203 2186 2416 2177 2221 2242 2268 2256 2266 2570 2617 2659 2628 2589 2571 2563 2300 2289 2258 2235 2249 2278 2302 2279 2246 2199 2411 2368 2325 2039 2002 1945 2129 1788 1687 1854 1804 1533 1516 1469 1654 1579 1254 1191 1384 1314 973 1135 1053 715 882 814 491 405 581 240 170 378 354 330 -21 -125 48 -289 -332 -368 -137 -165 -195 -521 -581 -623 -441 -483 -778 -830 -884 -694 -752 -762 -745 -749 -1026 -1063 -1126 -940 -984 -981 -959 -919 -926 -941 -950 -985 -988 -982 -975 -991 -994 -996 -1006 -1024 -1299 -1020 -1013 -1285 -1305 -1302 -1292 -1319 -1340 -1338 -1326 -1325 -1304 -1305 -1297 -1300 -1339 -1368 -1378 -1390 -1385 -1355 -1356 -1353 -1361 -1370 -1358 -1360 -1355 -1359 -1374 -1392 -1362 -1332 -1327 -1346 -1386 -1397 -1379 -1376 -1389 -1371 -1347 -1336 -1344 -1380 -1166 -1177 -1157 -1406 -1407 -1400 -1398 -1361 -1330 -1332 -1350 -1337 -1318 -1296 -1295 -999 -989 -1007 -1291 -1293 -1011 -984 -1011 -1022 -1012 -979 -957 -958 -987 -1010 -1309 -1300 -1297 -1016 -1018 -1004 -953 -909 -909 -914 -909 -1123 -1096 -1128 -919 -917 -917 -906 -1150 -1131 -1130 -1128 -901 -1144 -913 -917 -943 -950 -940 -900 -908 -1141 -1146 -1128 -1124 -1124 -1124 -1125 -1144 -1119 -1140 -1139 -900 -1135 -1117 -1052 -762 -766 -1071 -1106 -1137 -911 -952 -958 -898 -1084 -1076 -1079 -1104 -1083 -1084 -1084 -1089 -1085 -1108 -1131 -1138 -1116 -1089 -1063 -1050 -1046 -1030 -767 -1053 -1071 -1054 -760 -756 -750 -749 -762 -1026 -1034 -1036 -1026 -765 -1064 -1089 -1074 -753 -712 -693 -716 -744 -753 -738 -739 -1028 -1039 -1045 -1071 -1065 -1048 -751 -717 -713 -734 -740 -695 -651 -660 -684 -681 -706 -733 -735 -708 -699 -690 -703 -700 -699 -674 -877 -871 -888 -675 -702 -732 -719 -714 -684 -880 -813 -481 -440 -408 -602 -549 -534 -244 -222 -186 -373 -319 -272 50 -99 -38 -31 -58 -64 -32 -22 -19 -56 -93 -102 -97 -42 296 172 546 624 426 475 498 773 817 878 665 665 873 781 415 596 606 567 222 152 353 284 -60 112 52 -266 -319 -133 -190 -213 -216 -246 -531 -543 -559 -577 -567 -576 -629 -442 -770 -769 -493 -491 -792 -856 -662 -708 -721 -714 -710 -687 -648 -643 -666 -893 -859 -854 -846 -832 -798 -804 -844 -885 -669 -690 -699 -710 -691 -894 -853 -846 -850 -860 -861 -852 -819 -812 -815 -817 -804 -816 -836 -852 -859 -837 -829 -837 -831 -831 -865 -644 -656 -646 -872 -849 -829 -828 -819 -797 -786 -786 -784 -782 -797 -796 -797 -805 -797 -781 -512 -778 -832 -651 -653 -832 -769 -475 -478 -498 -801 -848 -885 -665 -664 -660 -863 -830 -790 -475 -416 -395 -586 -244 -185 -348 75 298 546 790 714 974 1213 1475 1791 2377 2475 2962 3502 4159 4048 3999 4166 4118 3772 3533 3231 2723 2009 1269 812 -107 -640 -1070 -1279 -2123 -2699 -3549 -4066 -4348 -4563 -4949 -4821 -4769 -4546 -4300 -4429 -4088 -4223 -3791 -3499 -3422 -3081 -2479 -2369 -1739 -1613 -1321 -1081 -894 -495 -404 -402 -403 -631 -599 -527 -164 -296 95 -38 336 165 169 367 262 -95 62 -277 -314 -285 -262 -273 -307 -316 -266 52 122 -52 272 285 318 334 340 354 336 285 -3 265 -14 -50 -66 -56 -69 -75 -45 -9 -1 -16 -5 285 332 348 345 358 362 366 368 373 333 260 -60 -48 288 132 186 177 177 183 220 518 515 245 521 533 551 566 576 631 397 385 601 579 578 615 627 624 626 612 628 616 616 637 426 459 487 509 500 810 860 643 889 848 824 784 771 811 853 878 891 891 880 640 671 683 664 676 682 700 764 1093 1108 1094 1076 1091 1093 1101 1140 1128 1098 1117 913 960 1001 1023 1014 1000 1281 1309 1319 1320 1324 1353 1406 1203 1245 1263 1260 1276 1561 1589 1628 1654 1648 1417 1439 1453 1485 1525 1796 1832 1853 1881 1885 1899 1691 1767 2073 2111 2113 2076 1787 2079 2165 1981 2035 2317 2315 2314 2329 2335 2340 2343 2345 2339 2347 2402 2222 2253 2250 2232 2217 2218 2213 2196 2197 2184 2192 2210 2232 2230 2215 2223 2268 2573 2563 2274 2245 2212 2422 2182 2217 2218 2198 2423 2384 2324 2014 1967 2172 2133 2099 2055 1750 1699 1839 1481 1439 1423 1607 1220 1353 1018 969 1138 1049 746 755 750 685 823 458 620 546 208 139 358 286 -58 110 27 -300 -129 -148 -155 -207 -561 -640 -459 -502 -785 -810 -822 -860 -642 -674 -696 -737 -1040 -1051 -1063 -1063 -1068 -1082 -1116 -911 -952 -945 -924 -931 -961 -998 -976 -946 -935 -981 -984 -986 -1006 -1287 -1285 -1005 -997 -991 -978 -990 -1282 -1313 -1329 -1347 -1320 -1330 -1357 -1352 -1325 -1306 -1314 -1348 -1358 -1352 -1337 -1304 -1316 -1316 -1326 -1295 -985 -954 -946 -958 -967 -998 -1285 -1292 -1285 -1013 -980 -959 -975 -989 -1000 -994 -992 -1287 -1304 -1001 -964 -950 -948 -940 -937 -930 -934 -935 -939 -943 -910 -1127 -1123 -1134 -902 -1136 -1123 -1122 -1132 -1135 -1136 -1134 -1110 -1087 -1087 -1075 -1054 -1036 -1059 -1059 -1046 -1071 -1075 -1037 -742 -739 -1027 -765 -726 -712 -721 -711 -752 -1050 -1084 -1101 -1065 -1042 -1044 -1054 -1063 -1044 -1029 -1067 -1067 -753 -730 -734 -768 -1054 -1051 -768 -1038 -1057 -1030 -1049 -1078 -1105 -1110 -1049 -732 -732 -707 -735 -1036 -1078 -1102 -1090 -1050 -1040 -1048 -1047 -764 -761 -743 -713 -689 -659 -688 -698 -730 -749 -728 -712 -695 -675 -662 -671 -665 -677 -684 -692 -689 -889 -845 -862 -664 -695 -689 -671 -658 -670 -645 -868 -886 -659 -670 -660 -655 -666 -698 -701 -680 -664 -660 -654 -698 -740 -755 -752 -761 -1035 -1029 -739 -703 -652 -869 -866 -844 -843 -865 -893 -646 -824 -507 -472 -455 -424 -630 -581 -228 -164 -133 -129 -163 -152 -347 21 72 75 60 83 -107 -85 -111 88 53 -257 -288 -302 -272 44 127 -34 284 371 165 177 183 211 250 542 605 385 616 553 247 244 224 160 336 276 -37 -116 98 43 -259 8 -279 -331 -205 -553 -569 -559 -532 -244 -195 -246 -590 -387 -618 -600 -389 -416 -497 -824 -835 -842 -828 -832 -823 -835 -804 -497 -485 -448 -412 -425 -460 -494 -458 -455 -427 -459 -476 -472 -510 -793 -844 -868 -676 -674 -872 -811 -505 -788 -787 -786 -507 -471 -468 -436 -438 -444 -432 -442 -442 -490 -503 -501 -499 -482 -450 -396 -398 -438 -466 -473 -473 -468 -470 -489 -491 -493 -509 -770 -496 -465 -392 -398 -415 -433 -446 -469 -469 -454 -431 -395 -409 -442 -477 -804 -866 -847 -771 -464 -402 -637 -389 -585 -253 -214 -156 -310 101 297 524 778 1042 1305 1543 1494 1731 2043 2446 3149 3599 3770 4078 4440 4429 4389 4054 4171 3930 3236 2889 1927 1184 474 -75 -516 -656 -1156 -2128 -2739 -3479 -4180 -4475 -4619 -4721 -4706 -4299 -4079 -4185 -4224 -4023 -4218 -3769 -3693 -3012 -2835 -2206 -2158 -1862 -1610 -1386 -978 -1112 -765 -685 -664 -652 -849 -459 -569 -187 -323 63 -59 281 328 305 -29 123 40 34 -260 -345 -146 -161 -143 -369 -333 -330 -288 -259 39 85 126 -80 -49 -38 -58 -89 -113 112 94 100 84 94 88 94 70 81 -116 -50 262 286 306 338 355 342 344 364 380 358 339 315 328 332 328 310 299 326 359 382 364 344 332 350 379 148 177 194 211 228 227 206 183 165 191 243 525 525 532 526 532 540 543 576 592 606 636 421 450 461 471 463 483 506 783 772 492 768 817 834 810 799 820 878 688 733 742 734 711 678 672 666 706 732 1033 1096 1135 1148 1140 1131 1118 1149 914 953 960 967 970 968 983 988 1300 1342 1363 1344 1380 1160 1186 1178 1176 1204 1225 1244 1272 1552 1545 1561 1588 1619 1418 1463 1475 1476 1462 1473 1520 1846 1893 1677 1699 1730 1750 1769 1784 2065 2080 2096 2122 2128 1936 1941 2005 2005 2008 2019 2316 2386 2193 2235 2226 2261 2275 2273 2271 2303 2288 2298 2565 2572 2587 2591 2600 2584 2601 2606 2603 2587 2299 2261 2252 2263 2274 2263 2235 2232 2194 2412 2367 2318 2030 1975 1933 2143 2077 1732 1671 1876 1818 1505 1440 1614 1256 1371 1293 995 962 946 906 1081 717 862 773 434 637 571 525 189 363 290 -31 -113 59 -269 -313 -351 -163 -213 -529 -576 -399 -487 -799 -838 -853 -857 -859 -851 -877 -681 -750 -1070 -1097 -1097 -1092 -1116 -916 -952 -989 -1011 -985 -969 -949 -951 -982 -1287 -1321 -1341 -1337 -1370 -1175 -1177 -1155 -1159 -1165 -1390 -1359 -1360 -1398 -1405 -1158 -1189 -1174 -1160 -1396 -1386 -1384 -1388 -1382 -1367 -1362 -1356 -1364 -1377 -1397 -1406 -1393 -1161 -1197 -1207 -1189 -1175 -1171 -1172 -1192 -1220 -1214 -1211 -1242 -1236 -1218 -1201 -1169 -1153 -1161 -1404 -1405 -1382 -1403 -1184 -1181 -1164 -1406 -1392 -1387 -1403 -1153 -1159 -1175 -1400 -1401 -1390 -1368 -1365 -1392 -1399 -1401 -1153 -1383 -1343 -1343 -1336 -1318 -1305 -1284 -1301 -1306 -1303 -1286 -1284 -1020 -1005 -985 -972 -962 -959 -995 -1003 -1023 -1016 -1018 -1000 -1011 -985 -987 -1283 -1315 -1294 -978 -954 -936 -929 -914 -1145 -1150 -916 -969 -979 -945 -917 -1149 -1134 -1100 -1083 -1059 -1050 -1037 -768 -766 -1033 -1052 -1053 -1050 -1038 -1043 -761 -728 -713 -728 -752 -766 -1034 -1045 -1060 -1058 -1061 -1070 -1039 -744 -733 -745 -749 -759 -1031 -1063 -1067 -1063 -1042 -1029 -757 -739 -726 -687 -682 -676 -694 -705 -706 -713 -727 -737 -746 -755 -768 -766 -733 -707 -720 -724 -726 -738 -719 -722 -753 -1034 -1037 -1025 -744 -699 -698 -692 -651 -886 -864 -880 -643 -654 -654 -873 -855 -837 -827 -813 -808 -770 -458 -407 -629 -627 -609 -572 -563 -541 -204 -375 -311 -274 23 30 10 34 56 38 3 -335 -357 -321 -302 0 72 -124 -47 265 330 370 367 135 172 178 196 198 211 210 193 170 130 352 322 264 -56 122 37 0 -263 -315 -363 -183 -247 -572 -618 -623 -621 -638 -632 -393 -429 -468 -502 -774 -790 -835 -845 -869 -885 -641 -650 -647 -893 -872 -869 -876 -886 -860 -821 -800 -783 -775 -794 -805 -778 -501 -467 -438 -459 -769 -772 -491 -476 -471 -478 -461 -457 -439 -413 -398 -391 -613 -570 -566 -566 -596 -614 -634 -387 -636 -623 -397 -447 -467 -476 -463 -453 -422 -412 -425 -445 -457 -455 -430 -424 -431 -437 -433 -451 -478 -481 -470 -481 -447 -428 -415 -412 -469 -487 -472 -447 -403 -639 -399 -404 -400 -396 -390 -404 -639 -566 -237 -176 -349 6 -113 297 229 418 854 1080 1290 1268 1866 1986 2659 3108 3320 3740 4008 4084 4061 3996 4156 3763 3482 3033 2444 1770 1335 423 109 -596 -1035 -1574 -2346 -2976 -3968 -4371 -4350 -4705 -4499 -4494 -4341 -4375 -4195 -4218 -3993 -4139 -3886 -3250 -3141 -2515 -2426 -2115 -1816 -1538 -1311 -1122 -689 -823 -773 -786 -786 -482 -638 -235 -350 28 126 257 346 372 365 345 289 -57 119 61 23 -285 -340 -378 -139 -351 -259 71 123 -66 -23 263 288 310 321 316 293 267 274 -11 -13 -22 -36 -55 -70 -70 -64 -67 -61 -4 298 316 342 380 137 137 129 374 363 352 340 336 373 167 187 172 178 189 214 232 234 226 255 544 564 561 540 556 571 580 562 598 639 417 434 422 422 444 461 480 494 499 510 504 491 775 828 849 833 820 827 857 891 891 878 882 885 652 680 716 750 761 764 1046 1070 1090 1099 1109 1121 1143 908 924 933 914 1139 1141 904 899 920 977 1005 1316 1359 1372 1367 1384 1384 1402 1396 1166 1218 1544 1565 1577 1570 1608 1636 1413 1432 1432 1422 1410 1430 1457 1494 1811 1894 1672 1917 1916 1703 1744 1770 2079 2142 2163 2164 2153 2167 1929 1973 2004 2009 2033 2355 2391 2403 2373 2379 2388 2364 2361 2410 2220 2270 2563 2617 2638 2648 2677 2686 2670 2658 2676 2439 2470 2488 2496 2506 2511 2540 2556 2555 2532 2504 2486 2458 2447 2457 2470 2462 2459 2449 2672 2630 2599 2567 2267 2197 2390 2316 1996 1953 2162 2114 2068 1747 1687 1868 1531 1443 1608 1259 1193 1378 1290 930 1069 720 666 880 836 774 439 612 544 208 379 295 -36 -114 68 46 24 -264 -318 -153 -523 -584 -587 -587 -602 -411 -485 -783 -816 -839 -838 -849 -874 -666 -706 -747 -1030 -1033 -1030 -1055 -1075 -1098 -1110 -1123 -1148 -926 -973 -989 -968 -964 -955 -979 -983 -991 -994 -953 -948 -954 -951 -939 -925 -909 -906 -924 -935 -961 -970 -973 -988 -1010 -1004 -990 -972 -978 -1024 -1302 -1287 -1023 -1288 -1006 -984 -975 -951 -935 -931 -962 -1000 -1281 -1295 -1286 -1282 -1020 -1283 -1324 -1356 -1360 -1378 -1384 -1372 -1352 -1322 -1308 -1309 -1310 -1306 -1285 -1023 -1281 -1020 -990 -960 -920 -911 -900 -923 -958 -984 -946 -1141 -1132 -1131 -901 -914 -915 -915 -914 -1142 -1125 -1114 -1090 -1065 -1061 -1058 -1039 -1040 -1050 -1054 -1037 -1029 -1043 -1051 -1043 -758 -739 -717 -739 -1030 -1059 -1080 -1061 -1072 -1078 -1095 -1133 -1115 -1046 -685 -885 -869 -658 -705 -735 -751 -755 -740 -709 -677 -894 -890 -674 -695 -670 -645 -882 -887 -658 -659 -877 -839 -836 -850 -882 -666 -686 -663 -889 -860 -838 -827 -797 -817 -830 -848 -857 -872 -868 -864 -860 -833 -834 -827 -820 -831 -819 -825 -830 -838 -849 -856 -836 -795 -781 -791 -798 -827 -818 -833 -844 -832 -846 -837 -843 -838 -829 -834 -827 -853 -854 -863 -844 -806 -793 -814 -822 -813 -798 -790 -799 -802 -811 -790 -502 -491 -503 -769 -775 -801 -800 -784 -505 -479 -446 -405 -387 -632 -605 -570 -569 -554 -542 -514 -202 -158 -362 -324 -291 7 65 102 -119 -101 -92 -73 -91 126 61 -261 -277 31 119 -49 296 361 184 523 579 572 554 584 406 473 505 499 459 398 576 541 516 229 157 339 283 -52 -106 81 10 -331 -163 -216 -221 -232 -239 -252 -526 -530 -541 -558 -593 -393 -435 -480 -769 -811 -821 -819 -839 -896 -657 -666 -690 -696 -678 -655 -653 -644 -887 -864 -802 -493 -498 -509 -509 -494 -476 -496 -769 -787 -829 -860 -887 -671 -689 -668 -865 -822 -781 -509 -506 -503 -506 -771 -793 -809 -818 -786 -511 -770 -770 -506 -498 -496 -501 -511 -771 -777 -769 -507 -482 -465 -465 -466 -474 -472 -465 -456 -454 -464 -486 -499 -475 -484 -775 -821 -815 -795 -779 -507 -507 -511 -787 -791 -774 -498 -472 -444 -446 -468 -460 -404 -579 -530 -170 4 -56 173 412 893 1104 1011 1175 1435 1779 2176 2907 3429 3908 4182 4002 4212 4152 3824 3930 3670 2998 2665 1730 1010 557 -324 -831 -1316 -1846 -2282 -3386 -4105 -4261 -4550 -4984 -5123 -5183 -4825 -4871 -4654 -4290 -4234 -4081 -3812 -3460 -3362 -2749 -2642 -2018 -1902 -1574 -1314 -1104 -678 -815 -795 -819 -836 -813 -496 -393 -523 -141 -277 79 -91 -43 -51 -99 72 -259 -345 -191 -238 -253 -538 -560 -544 -226 -162 -373 -340 -296 14 53 68 93 114 112 108 96 99 88 59 68 51 25 -283 -304 -270 61 110 -90 -79 -61 -85 -106 -126 111 114 -127 -94 -66 -54 -51 -35 -14 -37 -59 -53 -23 -15 -6 278 289 297 291 293 311 314 298 314 331 338 353 343 359 378 147 157 153 143 148 160 197 238 253 547 570 579 597 615 628 610 590 584 581 620 403 439 439 415 409 431 477 509 777 787 804 829 849 857 874 884 640 658 695 710 714 726 754 1049 1080 1099 1107 1066 1075 1147 924 932 948 977 1009 1293 1313 1339 1362 1386 1181 1214 1238 1253 1536 1568 1589 1601 1604 1626 1648 1419 1455 1501 1535 1810 1798 1502 1500 1833 1667 1726 1773 2070 2080 2063 1776 1776 2085 2154 1949 1983 1993 2002 2018 2024 2042 2319 2345 2371 2394 2176 2187 2428 2199 2242 2267 2278 2273 2251 2272 2269 2283 2568 2294 2264 2260 2259 2256 2215 2193 2182 2424 2400 2392 2368 2364 2389 2423 2423 2364 2012 1930 2174 2113 2053 1743 1720 1719 1726 1686 1868 1509 1436 1606 1268 1202 1403 1337 1012 953 898 1069 713 874 814 507 432 624 538 200 150 321 -17 -85 125 66 -271 -353 -185 -513 -563 -612 -622 -408 -470 -774 -785 -800 -836 -882 -650 -685 -718 -741 -1029 -1066 -1080 -1083 -1074 -1064 -1065 -1065 -1076 -1106 -1140 -919 -957 -968 -989 -1005 -1291 -1305 -1310 -1295 -1006 -997 -1014 -1312 -1335 -1337 -1337 -1321 -1306 -1305 -1307 -1323 -1343 -1343 -1339 -1354 -1358 -1327 -1330 -1023 -964 -923 -949 -998 -1298 -1328 -1331 -1319 -1285 -986 -975 -987 -1005 -991 -1283 -1292 -1023 -1014 -1024 -1285 -1001 -1019 -1291 -1289 -1283 -1019 -1015 -1016 -1299 -1002 -1018 -1296 -1019 -1008 -981 -1019 -1003 -1002 -1023 -1005 -1020 -1015 -985 -980 -982 -990 -991 -964 -939 -941 -941 -939 -963 -1000 -1010 -1003 -962 -950 -939 -931 -940 -938 -946 -962 -944 -927 -908 -909 -926 -930 -938 -928 -1147 -1112 -1098 -1102 -1079 -1081 -1081 -1078 -1073 -1092 -1105 -1092 -1102 -1120 -1132 -1094 -1045 -757 -740 -1036 -1076 -1103 -1111 -1108 -1068 -1049 -1074 -1091 -1065 -1047 -1047 -1030 -745 -739 -758 -1026 -768 -748 -731 -723 -708 -719 -728 -718 -705 -701 -711 -711 -682 -655 -651 -677 -686 -686 -685 -679 -681 -677 -690 -720 -726 -697 -677 -660 -646 -642 -672 -691 -704 -712 -692 -688 -688 -724 -737 -761 -1028 -745 -670 -882 -848 -861 -650 -706 -740 -741 -754 -732 -693 -693 -689 -690 -655 -875 -873 -878 -878 -872 -866 -865 -857 -873 -888 -858 -831 -814 -818 -795 -769 -511 -492 -452 -424 -396 -623 -601 -576 -557 -535 -522 -235 -171 -344 -274 26 50 68 89 122 -109 -91 -91 -77 -64 -59 -110 102 112 -96 -35 292 144 226 540 634 441 455 469 506 810 857 874 857 778 456 406 390 611 512 155 324 -3 -78 87 15 -289 -355 -148 -166 -163 -172 -217 -233 -250 -543 -573 -589 -594 -397 -452 -469 -460 -458 -461 -774 -849 -665 -678 -656 -892 -868 -835 -800 -781 -795 -809 -807 -778 -507 -773 -790 -783 -500 -503 -785 -843 -885 -659 -651 -895 -894 -654 -673 -664 -890 -866 -827 -799 -812 -856 -875 -865 -854 -839 -834 -851 -886 -655 -653 -880 -864 -870 -873 -894 -892 -867 -827 -812 -808 -827 -842 -846 -853 -835 -807 -817 -855 -853 -829 -807 -831 -874 -891 -641 -890 -882 -884 -891 -663 -673 -663 -655 -643 -893 -894 -643 -867 -800 -481 -396 -575 -201 -294 -83 156 628 851 1085 1283 1546 1879 2019 2685 3167 3668 3761 4153 4149 4100 3780 3895 3683 3053 2523 2105 1371 620 -349 -892 -1352 -1839 -2183 -2961 -3759 -4291 -4883 -5135 -5381 -5268 -5437 -5196 -4953 -4565 -4708 -4297 -4053 -3720 -3637 -3040 -2709 -2595 -1941 -1872 -1615 -1366 -908 -759 -674 -889 -884 -873 -830 -497 -436 -628 -238 -347 11 77 89 41 -299 -381 -190 -250 -547 -590 -585 -572 -529 -243 -225 -207 -182 -154 -349 -280 3 24 46 28 -257 -293 -312 -338 -357 -344 -301 -266 11 10 9 22 55 80 113 -105 -79 -88 -92 -96 -113 117 106 87 81 93 107 114 -109 -99 -97 -79 -56 -34 -22 275 302 329 329 329 331 348 341 335 332 335 351 377 158 177 192 213 204 193 195 220 247 516 526 525 549 566 589 602 586 573 591 622 404 431 440 424 395 635 398 447 465 471 489 793 832 831 837 822 816 851 642 685 706 728 738 723 739 763 1049 1080 1071 1045 1093 921 1001 1286 1283 1022 1004 994 998 1301 1359 1384 1154 1187 1220 1253 1270 1265 1262 1571 1414 1490 1517 1500 1506 1804 1814 1806 1840 1892 1675 1702 1726 1751 1772 1787 2059 2085 2116 2124 2121 2129 2147 2157 2165 1929 1940 1979 2028 2337 2361 2377 2387 2397 2389 2407 2183 2224 2242 2233 2214 2210 2203 2234 2303 2587 2577 2288 2268 2270 2247 2233 2230 2222 2217 2210 2216 2230 2210 2406 2357 2313 2034 1992 1957 1924 2130 2050 1737 1710 1683 1885 1805 1416 1554 1230 1182 1390 1344 1013 925 1098 760 660 864 814 492 413 598 514 167 339 257 -77 113 59 3 -289 -340 -158 -256 -595 -640 -423 -489 -818 -874 -656 -682 -687 -698 -710 -720 -727 -762 -1056 -1106 -1138 -927 -973 -976 -950 -938 -968 -1282 -1315 -1338 -1358 -1373 -1383 -1393 -1395 -1382 -1374 -1366 -1349 -1339 -1334 -1352 -1374 -1398 -1158 -1406 -1380 -1379 -1373 -1374 -1163 -1406 -1363 -1338 -1322 -1341 -1367 -1376 -1395 -1173 -1178 -1164 -1155 -1155 -1389 -1361 -1372 -1404 -1172 -1156 -1165 -1176 -1154 -1375 -1369 -1373 -1378 -1378 -1388 -1381 -1386 -1386 -1400 -1400 -1391 -1361 -1351 -1340 -1315 -1021 -1292 -1320 -1322 -1344 -1349 -1322 -1300 -1301 -1325 -1338 -1332 -1287 -990 -984 -985 -949 -928 -915 -908 -907 -1151 -1145 -1144 -1136 -1108 -1067 -1025 -751 -1040 -1066 -1075 -1078 -1091 -1100 -1113 -1087 -1056 -765 -726 -705 -743 -1025 -766 -1039 -1041 -1072 -1084 -1066 -1038 -765 -757 -739 -728 -759 -1059 -1038 -748 -740 -744 -760 -1029 -1039 -1038 -726 -676 -668 -684 -680 -656 -892 -886 -872 -649 -701 -702 -644 -846 -824 -822 -845 -880 -891 -884 -881 -875 -892 -656 -662 -681 -658 -846 -818 -828 -856 -868 -861 -856 -847 -870 -869 -873 -854 -824 -790 -778 -796 -798 -504 -769 -806 -805 -781 -780 -800 -849 -873 -893 -886 -857 -818 -793 -499 -772 -813 -875 -888 -869 -868 -862 -861 -866 -879 -644 -878 -854 -829 -828 -837 -842 -870 -657 -654 -896 -895 -674 -678 -873 -801 -487 -433 -397 -616 -587 -602 -621 -603 -581 -557 -513 -211 -135 -289 43 72 95 116 -121 -122 -83 -95 -123 -127 -116 -121 -82 -31 276 323 365 210 606 458 776 808 833 838 817 816 804 511 447 624 592 574 255 190 130 320 -4 -109 12 -361 -148 -159 -183 -216 -254 -527 -524 -537 -531 -547 -575 -624 -420 -457 -487 -774 -808 -832 -831 -832 -840 -833 -863 -658 -679 -663 -649 -885 -861 -822 -806 -785 -510 -502 -781 -783 -798 -807 -861 -659 -646 -860 -881 -675 -701 -678 -681 -710 -692 -647 -887 -859 -821 -872 -669 -748 -767 -740 -675 -871 -853 -866 -893 -653 -703 -712 -735 -747 -724 -684 -667 -659 -679 -652 -803 -469 -493 -776 -836 -867 -828 -818 -819 -839 -895 -887 -842 -793 -492 -498 -809 -886 -653 -642 -642 -839 -781 -776 -786 -833 -825 -790 -466 -591 -210 -321 65 274 514 499 686 1120 1304 1269 1863 2026 2490 2981 3472 4160 4395 4450 4389 4035 4150 3716 3647 3137 2244 1504 757 319 -227 -701 -1182 -1772 -2527 -3605 -4224 -4670 -4761 -5228 -5054 -5218 -4966 -4719 -4345 -4330 -4460 -4018 -3772 -3648 -2977 -2541 -2203 -2148 -1809 -1552 -1394 -969 -1047 -649 -833 -807 -778 -475 -424 -592 -212 -370 -299 7 85 -101 -76 -115 42 -352 -201 -221 -205 -179 -178 -190 -198 -183 -158 -354 -294 14 68 93 112 119 119 113 105 50 -257 -296 -305 -319 -326 -317 -269 3 7 14 18 61 114 -97 -72 -62 -54 -54 -53 -31 -26 -24 -11 259 272 -7 -7 -6 273 -13 272 330 350 368 372 142 140 138 369 350 332 319 346 356 333 278 298 334 128 146 149 160 174 176 163 156 146 174 221 233 228 557 601 590 595 572 563 595 621 393 404 405 407 398 388 417 444 444 447 427 433 500 848 887 858 810 813 813 810 795 508 769 820 646 720 1029 1047 1065 1059 1077 1091 1125 896 943 980 1013 1300 1322 1382 1155 1400 1153 1220 1267 1260 1211 1186 1201 1237 1265 1558 1624 1449 1477 1464 1433 1452 1478 1484 1512 1811 1892 1698 1706 1682 1879 1872 1688 1778 2083 2102 2092 2093 2107 2098 2141 1982 2028 2002 1984 2027 2339 2384 2420 2399 2410 2181 2430 2393 2331 2305 2358 2184 2231 2266 2257 2209 2185 2403 2370 2357 2331 2324 2042 2003 2000 2007 1986 1953 2156 2074 1755 1715 1669 1881 1810 1476 1414 1613 1562 1267 1212 1385 1333 1283 983 900 1084 1040 685 818 458 406 621 579 516 220 178 379 326 -2 -78 120 60 -291 -363 -148 -146 -153 -177 -217 -536 -580 -617 -401 -427 -437 -465 -494 -786 -823 -868 -895 -663 -678 -682 -661 -881 -880 -896 -693 -751 -763 -757 -767 -1040 -1084 -1115 -1067 -1028 -766 -761 -768 -1089 -1139 -1135 -1127 -1087 -1047 -1056 -1100 -1137 -1114 -1068 -1043 -1040 -1043 -1080 -1060 -1032 -764 -1056 -1066 -1077 -1101 -903 -935 -928 -1149 -1101 -1053 -759 -751 -764 -1086 -1137 -1114 -1103 -1081 -1058 -766 -1026 -747 -765 -767 -1030 -1050 -1049 -762 -742 -747 -761 -767 -748 -745 -1037 -763 -733 -737 -749 -740 -709 -712 -742 -742 -746 -714 -670 -670 -664 -661 -648 -870 -824 -873 -700 -724 -691 -886 -833 -769 -784 -851 -853 -803 -782 -798 -801 -784 -488 -506 -496 -512 -789 -772 -500 -793 -804 -822 -799 -781 -778 -507 -503 -486 -424 -412 -434 -486 -769 -792 -793 -501 -485 -476 -474 -439 -402 -397 -411 -439 -476 -769 -800 -808 -799 -493 -414 -413 -469 -506 -793 -825 -833 -777 -474 -435 -421 -458 -510 -807 -855 -836 -770 -477 -476 -777 -795 -801 -786 -794 -796 -792 -814 -826 -850 -875 -876 -844 -788 -500 -779 -816 -836 -864 -896 -888 -860 -817 -825 -825 -505 -479 -478 -497 -510 -495 -508 -438 -388 -629 -628 -408 -407 -609 -534 -225 -228 -518 -521 -205 -374 -303 27 118 123 122 86 63 50 22 5 -281 -300 -272 10 71 -86 334 181 181 219 530 554 566 576 589 574 541 529 537 543 566 587 552 242 144 323 -9 -105 75 -260 -319 -359 -361 -367 -162 -214 -513 -555 -619 -640 -392 -402 -423 -471 -828 -872 -647 -668 -690 -696 -672 -661 -890 -864 -855 -855 -868 -864 -834 -788 -795 -807 -813 -832 -824 -779 -493 -458 -457 -465 -771 -818 -861 -892 -674 -701 -710 -664 -855 -821 -841 -850 -829 -838 -876 -864 -848 -834 -875 -671 -699 -716 -716 -709 -677 -650 -873 -823 -790 -769 -795 -862 -650 -872 -817 -797 -799 -812 -847 -891 -646 -865 -840 -849 -862 -895 -671 -704 -713 -703 -712 -700 -693 -891 -868 -853 -887 -667 -700 -679 -883 -799 -440 -591 -200 -280 -102 360 577 811 1040 983 1214 1527 2111 2231 2885 3050 3522 4138 4016 4029 4215 4136 3798 3876 3250 2930 1943 1162 437 -100 -533 -681 -1189 -2155 -2722 -3676 -3840 -4408 -4335 -4706 -4716 -4338 -4370 -3974 -4003 -4025 -4212 -3808 -3546 -3208 -3102 -2471 -2345 -1783 -1498 -1552 -1155 -1007 -1131 -1046 -1041 -768 -714 -893 -494 -595 -200 -314 54 101 112 120 125 115 79 24 -305 -372 -145 -139 -143 -163 -165 -371 -310 30 81 111 -126 -87 -50 -7 -8 -25 -59 -89 -93 -128 58 10 -288 -281 11 50 77 100 -99 -53 -42 -28 -11 -1 -8 -41 -72 -83 -65 -46 -33 -24 -24 -6 298 296 -5 -40 -11 283 296 315 348 142 186 206 187 169 146 159 204 229 214 195 215 244 248 523 534 523 516 554 568 556 557 552 550 583 624 620 625 631 389 625 634 397 410 414 418 452 461 490 490 776 822 852 851 844 869 876 852 885 676 739 1039 1078 1099 1112 1113 1137 1136 1128 1139 920 944 959 978 1290 1333 1351 1359 1345 1360 1406 1193 1221 1227 1229 1254 1555 1568 1578 1567 1553 1580 1414 1491 1803 1808 1528 1496 1521 1848 1907 1664 1694 1708 1760 2086 2125 2134 2139 2150 1950 1979 1991 2015 2035 2325 2349 2382 2416 2210 2242 2267 2295 2293 2274 2286 2300 2566 2590 2592 2591 2610 2647 2675 2686 2672 2657 2647 2643 2606 2579 2583 2590 2581 2584 2587 2280 2218 2430 2389 2363 2348 2316 2019 1977 1946 1928 2130 2063 1728 1884 1511 1426 1632 1607 1602 1577 1246 1379 988 1135 1025 703 699 664 866 509 423 613 254 154 331 284 -14 -91 92 46 -287 -363 -184 -250 -545 -590 -400 -465 -802 -861 -654 -692 -729 -1045 -1079 -1081 -1090 -1086 -1072 -1090 -1133 -936 -952 -975 -1014 -1281 -1292 -1293 -1281 -1284 -1308 -1348 -1340 -1338 -1343 -1339 -1348 -1368 -1401 -1184 -1191 -1156 -1383 -1377 -1153 -1179 -1206 -1216 -1206 -1157 -1383 -1371 -1363 -1372 -1396 -1400 -1165 -1155 -1154 -1374 -1348 -1345 -1364 -1362 -1352 -1356 -1339 -1321 -1322 -1312 -1344 -1355 -1356 -1345 -1342 -1336 -1335 -1351 -1331 -1347 -1359 -1327 -1322 -1300 -1302 -1301 -1296 -1303 -1316 -1326 -1303 -1000 -991 -974 -959 -926 -922 -928 -940 -943 -982 -1023 -1002 -956 -940 -953 -957 -930 -937 -956 -958 -949 -944 -979 -989 -974 -947 -914 -1147 -1125 -1125 -1140 -1148 -1137 -1103 -1107 -1084 -1065 -1073 -1069 -1061 -1072 -1090 -1093 -1071 -1059 -1064 -1071 -1075 -1092 -1110 -1113 -1097 -1096 -1078 -1044 -1032 -1070 -1124 -902 -905 -1116 -1082 -1097 -1083 -1043 -748 -723 -710 -711 -713 -725 -740 -746 -734 -717 -683 -657 -653 -648 -658 -676 -689 -689 -692 -707 -737 -735 -727 -722 -713 -702 -700 -706 -727 -746 -737 -715 -699 -677 -665 -654 -650 -667 -687 -708 -711 -688 -893 -878 -867 -892 -679 -671 -684 -697 -680 -659 -655 -896 -847 -822 -821 -806 -801 -813 -817 -787 -472 -401 -607 -606 -607 -594 -568 -547 -215 -139 -369 -357 -327 -306 -291 -282 9 3 9 9 29 -282 -325 -347 -349 -333 -324 -276 69 -71 256 282 307 342 145 154 166 165 155 132 360 345 339 317 295 -5 -90 81 17 -286 -324 -130 -187 -195 -207 -518 -589 -393 -431 -431 -428 -442 -461 -512 -814 -819 -830 -847 -873 -647 -662 -665 -671 -689 -686 -657 -881 -886 -645 -657 -676 -650 -849 -830 -834 -847 -865 -866 -875 -658 -711 -710 -679 -693 -728 -764 -757 -768 -746 -684 -879 -881 -874 -867 -847 -825 -817 -816 -833 -845 -863 -878 -874 -886 -888 -647 -882 -851 -847 -856 -872 -882 -879 -849 -815 -797 -797 -827 -867 -888 -896 -885 -853 -829 -826 -875 -642 -889 -853 -832 -836 -862 -888 -645 -651 -887 -840 -796 -509 -508 -503 -476 -420 -573 -190 -293 -116 337 522 449 649 1119 1352 1653 1735 2369 2547 3010 3696 3966 3780 3758 3742 3954 3578 3310 3147 2291 1836 1086 129 -190 -884 -1298 -1809 -2261 -3358 -3816 -4479 -4505 -4920 -4771 -4794 -4911 -4707 -4271 -4273 -4310 -4477 -3999 -3902 -3309 -2967 -2889 -2292 -1970 -1691 -1446 -1222 -1321 -981 -938 -1146 -1073 -760 -690 -838 -455 -580 -224 -377 -317 -304 -304 -307 -332 -376 -172 -526 -617 -438 -452 -427 -406 -640 -596 -537 -222 -181 -160 -159 -382 -324 -269 7 11 -279 -344 -369 -130 -155 -168 -130 -348 -323 -299 -272 36 74 117 -121 -97 -76 -111 -119 -126 100 -127 119 124 -99 119 109 115 125 -93 -89 -85 -64 -73 -68 -56 -73 -93 -79 -66 -31 -19 -14 -5 -8 288 352 368 328 354 340 324 349 147 207 247 248 194 206 227 519 543 585 561 529 512 523 561 568 613 413 448 455 438 453 469 477 499 789 800 826 830 849 880 648 672 688 678 675 689 713 738 757 1028 1066 1083 1096 1118 1135 902 960 1007 1287 1290 1299 1344 1382 1383 1377 1398 1183 1219 1239 1262 1537 1582 1614 1647 1438 1468 1478 1478 1468 1519 1822 1840 1824 1811 1828 1889 1723 2058 2088 2089 2104 2098 2102 2112 2146 1924 1949 2025 2335 2364 2387 2363 2326 2315 2372 2423 2228 2285 2292 2272 2255 2254 2260 2260 2271 2301 2594 2613 2617 2603 2579 2574 2291 2275 2260 2244 2234 2239 2257 2248 2226 2197 2391 2320 2021 1986 1946 2148 2104 1788 1753 1697 1905 1852 1794 1463 1646 1580 1225 1154 1345 1017 933 1121 1041 710 889 799 468 424 625 584 243 134 266 -103 91 43 -270 -339 -157 -219 -558 -630 -404 -415 -430 -476 -829 -683 -746 -768 -1026 -1040 -1080 -1128 -1148 -902 -907 -928 -946 -967 -977 -963 -991 -1010 -1298 -1351 -1358 -1364 -1373 -1375 -1364 -1354 -1383 -1153 -1177 -1190 -1218 -1222 -1181 -1165 -1172 -1197 -1240 -1251 -1254 -1233 -1234 -1223 -1215 -1182 -1171 -1180 -1215 -1247 -1250 -1250 -1259 -1211 -1153 -1389 -1395 -1161 -1184 -1208 -1231 -1247 -1210 -1401 -1347 -1334 -1323 -1305 -1317 -1358 -1386 -1153 -1394 -1368 -1333 -1300 -1294 -1320 -1340 -1345 -1360 -1374 -1351 -1354 -1349 -1309 -1017 -1008 -1018 -1295 -1283 -1003 -988 -985 -979 -957 -995 -1291 -1332 -1337 -1017 -991 -1001 -1003 -951 -1133 -1112 -1094 -1106 -1124 -1111 -1134 -1127 -1121 -1114 -1081 -1081 -1049 -1055 -1051 -742 -728 -707 -744 -764 -730 -716 -689 -717 -758 -727 -718 -700 -683 -689 -652 -676 -706 -699 -713 -680 -672 -687 -685 -713 -690 -705 -711 -704 -708 -662 -650 -642 -877 -881 -855 -874 -891 -887 -881 -875 -885 -650 -653 -672 -694 -731 -767 -719 -687 -647 -644 -656 -712 -706 -719 -726 -739 -715 -659 -647 -651 -655 -670 -681 -706 -725 -714 -733 -745 -703 -678 -668 -686 -681 -689 -704 -724 -752 -748 -744 -736 -740 -747 -750 -756 -749 -737 -713 -702 -682 -686 -708 -740 -739 -721 -694 -678 -654 -865 -821 -775 -484 -477 -486 -479 -428 -600 -542 -250 -218 -209 -207 -181 -147 -336 -282 18 55 91 94 61 6 -307 -336 -314 -297 5 102 -77 -2 350 192 252 530 544 566 585 568 544 521 222 208 192 154 370 309 -10 -90 63 -272 -337 -374 -158 -202 -227 -527 -591 -390 -424 -441 -425 -395 -395 -450 -511 -795 -793 -795 -832 -867 -677 -740 -765 -766 -732 -741 -1032 -1041 -757 -737 -731 -748 -715 -677 -654 -893 -868 -846 -838 -831 -872 -642 -662 -661 -680 -707 -740 -739 -700 -699 -679 -661 -674 -660 -643 -880 -864 -884 -647 -649 -890 -856 -836 -822 -820 -838 -851 -850 -823 -824 -839 -838 -832 -824 -785 -478 -456 -461 -496 -781 -805 -831 -841 -820 -819 -850 -888 -891 -827 -791 -800 -823 -805 -786 -801 -807 -810 -810 -811 -786 -488 -433 -633 -599 -540 -212 -346 68 286 250 469 689 922 1376 1589 1884 1994 2670 3131 3611 3759 3983 4022 3990 4194 4107 3941 3640 3174 2577 1865 1129 166 -201 -685 -1155 -1685 -2636 -3442 -4117 -4227 -4517 -4742 -5169 -5193 -4739 -4690 -4444 -4400 -4361 -4203 -3907 -3586 -2994 -2872 -2251 -2143 -1823 -1558 -1290 -1100 -688 -896 -842 -807 -789 -492 -440 -619 -251 -157 -311 12 73 60 24 -261 -274 -260 -309 -382 -202 -253 -518 -525 -219 -193 -172 -351 -301 41 116 -82 -90 -90 -73 -102 126 106 78 50 -261 4 4 0 19 14 32 27 70 107 115 -102 -77 -39 257 273 312 311 335 339 326 335 326 350 368 138 165 186 220 241 517 536 254 251 525 557 597 599 586 557 560 589 604 596 555 520 245 238 515 544 596 633 636 387 622 619 638 402 426 450 464 482 796 831 844 857 881 643 641 865 844 831 804 809 874 712 758 1025 1049 1054 1044 763 1026 1097 1131 1150 919 957 982 1003 1286 1302 1300 1337 1359 1387 1402 1405 1160 1154 1167 1199 1236 1262 1552 1568 1563 1600 1638 1427 1492 1529 1533 1793 1816 1838 1849 1842 1838 1870 1675 1753 2051 2079 2102 2137 2173 1947 1986 2038 2325 2347 2358 2384 2416 2196 2232 2254 2280 2294 2575 2619 2667 2676 2631 2583 2567 2604 2673 2469 2497 2512 2544 2551 2832 2874 2900 2902 2890 2869 2858 2890 2920 2926 2910 2905 2907 2876 2854 2823 2514 2479 2469 2452 2672 2650 2614 2296 2238 2424 2370 2308 1994 2168 2105 2051 1751 1698 1897 1834 1494 1410 1572 1231 1405 1314 959 1122 1058 758 714 659 849 507 434 580 233 162 342 265 -60 -127 47 -276 -321 -364 -166 -230 -528 -571 -610 -404 -447 -781 -894 -670 -877 -837 -843 -882 -692 -752 -1052 -1087 -1102 -1079 -1046 -1035 -1027 -1040 -1073 -1103 -1119 -901 -919 -911 -1132 -1137 -1141 -1134 -1121 -1146 -926 -943 -924 -1134 -1118 -1113 -1118 -1133 -1152 -1149 -1129 -1111 -1118 -1126 -897 -911 -904 -903 -1134 -1137 -1135 -1135 -1143 -1146 -1139 -1146 -1142 -1133 -912 -923 -938 -926 -906 -901 -1144 -1133 -1134 -1146 -1151 -1152 -900 -910 -916 -930 -924 -917 -911 -1152 -904 -904 -897 -901 -1138 -1106 -1093 -1075 -1092 -1104 -1107 -1100 -1088 -1066 -1045 -1034 -1027 -1040 -1034 -1032 -1052 -1074 -1078 -1069 -1062 -1061 -1071 -1074 -1087 -1084 -1082 -1071 -1088 -1106 -1126 -1137 -1116 -1108 -1121 -901 -898 -1121 -1096 -1098 -1110 -1123 -1139 -1137 -1123 -1098 -1085 -1083 -1094 -1094 -1059 -1043 -1030 -1046 -743 -725 -729 -729 -727 -742 -761 -756 -755 -735 -750 -767 -750 -731 -728 -732 -729 -739 -734 -734 -723 -699 -688 -682 -676 -662 -662 -692 -709 -708 -698 -682 -647 -648 -678 -680 -887 -825 -819 -836 -854 -848 -853 -857 -835 -822 -830 -851 -859 -890 -647 -881 -880 -871 -884 -893 -883 -855 -852 -859 -866 -883 -671 -716 -686 -870 -822 -801 -796 -795 -814 -830 -812 -795 -794 -779 -790 -832 -844 -809 -502 -470 -449 -435 -390 -625 -602 -577 -557 -535 -230 -158 -372 -363 -372 -330 34 -122 -80 -67 -54 -32 -12 -1 -20 -67 -116 123 -109 -58 272 351 154 515 614 442 482 497 771 785 822 828 811 499 439 419 402 631 592 547 222 129 316 -2 -84 105 29 -296 -344 -143 -165 -187 -204 -211 -207 -232 -547 -591 -614 -401 -416 -444 -476 -773 -818 -862 -885 -881 -859 -869 -880 -886 -886 -886 -859 -832 -832 -851 -840 -815 -796 -783 -776 -784 -822 -864 -893 -642 -662 -670 -665 -675 -682 -669 -892 -850 -816 -787 -774 -512 -509 -785 -836 -882 -657 -642 -852 -824 -796 -810 -842 -871 -864 -856 -837 -862 -878 -864 -844 -836 -846 -852 -833 -825 -844 -868 -846 -814 -809 -816 -796 -805 -835 -849 -826 -800 -790 -802 -811 -807 -824 -855 -851 -852 -850 -870 -841 -490 -639 -552 -215 -134 -268 -107 370 603 793 738 975 1269 1857 1936 2581 2765 3230 3915 4167 4215 4175 3836 3750 3843 3272 3075 2223 1799 1048 333 -556 -1048 -1277 -1792 -2472 -3294 -4212 -4346 -4882 -4806 -5242 -5051 -5173 -4960 -4494 -4683 -4339 -4431 -4131 -3519 -3438 -2806 -2470 -2396 -2064 -1531 -1567 -1323 -1119 -724 -658 -679 -697 -667 -852 -501 -412 -539 -145 -288 53 66 18 -299 -373 -166 -227 -535 -572 -611 -632 -622 -595 -547 -232 -184 -135 -368 -334 -295 -262 -261 9 1 -288 -327 -377 -143 -153 -178 -190 -159 -343 -295 -265 29 78 104 94 76 80 75 84 113 -111 -108 -116 -106 -94 -61 -56 -81 -122 116 124 -110 -62 -45 -34 -48 -41 -25 266 318 338 337 326 327 313 305 326 319 324 340 366 133 373 369 356 371 130 168 148 152 199 218 226 212 187 209 234 548 565 607 573 580 611 395 439 433 439 430 449 485 787 818 804 821 829 828 853 659 687 678 684 682 742 758 1034 1046 1061 1094 1105 1123 1122 1130 1150 913 942 978 997 1003 1009 1292 1321 1323 1360 1396 1164 1183 1213 1232 1245 1278 1579 1603 1602 1637 1467 1527 1535 1523 1792 1818 1842 1871 1871 1889 1665 1694 1683 1694 1726 1763 1777 2056 2091 2123 2154 1923 1942 1955 1981 2028 2308 2358 2422 2181 2422 2182 2205 2265 2581 2574 2579 2577 2288 2280 2563 2575 2299 2289 2273 2287 2564 2560 2561 2276 2221 2176 2412 2385 2338 2307 2029 2011 1972 2173 2115 2076 1769 1721 1674 1871 1814 1500 1470 1662 1581 1253 1181 1365 1283 940 1118 767 661 818 485 433 415 385 587 249 186 353 -39 80 -264 -319 -378 -155 -172 -217 -563 -631 -405 -432 -476 -500 -800 -883 -717 -752 -732 -738 -752 -1029 -1069 -1096 -1147 -954 -993 -1001 -997 -1006 -1313 -1384 -1402 -1166 -1162 -1169 -1405 -1386 -1400 -1176 -1197 -1225 -1215 -1193 -1202 -1218 -1191 -1406 -1364 -1363 -1362 -1366 -1335 -1337 -1377 -1408 -1160 -1171 -1199 -1189 -1160 -1395 -1402 -1402 -1399 -1406 -1190 -1245 -1243 -1199 -1389 -1362 -1350 -1344 -1338 -1338 -1359 -1396 -1164 -1159 -1350 -1011 -988 -1001 -1299 -1326 -1332 -1326 -1296 -1001 -986 -955 -955 -968 -963 -960 -942 -934 -963 -992 -977 -973 -973 -984 -951 -914 -899 -1141 -1124 -1127 -911 -921 -935 -950 -939 -1123 -1070 -1056 -1037 -1035 -765 -746 -767 -1074 -1085 -1050 -1033 -1029 -1025 -1056 -1087 -1072 -1035 -744 -717 -724 -735 -734 -749 -735 -740 -730 -704 -715 -736 -1025 -1045 -1026 -748 -724 -695 -714 -741 -749 -735 -753 -1038 -1079 -1082 -1073 -1047 -757 -729 -707 -683 -692 -708 -703 -700 -712 -730 -737 -716 -700 -693 -704 -724 -750 -744 -738 -719 -726 -751 -764 -735 -716 -736 -737 -724 -715 -736 -724 -720 -732 -756 -1034 -1033 -765 -764 -1058 -1079 -1063 -1060 -1055 -765 -691 -651 -664 -709 -764 -1033 -1027 -760 -750 -717 -679 -655 -648 -668 -659 -653 -884 -869 -882 -896 -659 -872 -836 -813 -800 -476 -432 -392 -610 -597 -598 -540 -213 -174 -141 -343 -276 60 101 116 -112 -53 -38 -114 53 6 29 97 -94 -23 280 361 213 549 606 389 415 391 395 417 409 625 573 226 144 359 351 365 332 -17 -92 105 31 -313 -137 -173 -240 -539 -553 -591 -397 -462 -487 -481 -425 -628 -387 -401 -429 -490 -828 -880 -680 -709 -685 -683 -696 -688 -648 -867 -849 -872 -892 -871 -841 -806 -792 -773 -511 -511 -807 -822 -851 -656 -721 -716 -696 -714 -752 -1040 -1048 -1059 -763 -699 -659 -894 -894 -661 -691 -682 -679 -680 -659 -891 -870 -871 -885 -663 -695 -701 -687 -672 -880 -870 -649 -686 -722 -698 -677 -686 -690 -682 -691 -675 -671 -672 -674 -676 -703 -717 -717 -745 -1032 -744 -674 -883 -869 -646 -663 -649 -896 -892 -650 -873 -803 -462 -407 -578 -191 -266 -75 357 558 501 744 973 1224 1527 2145 2562 2759 3254 3948 4175 3985 4008 4197 3780 3543 3434 2722 2399 1455 726 292 -523 -719 -1160 -1761 -2852 -3669 -3980 -4621 -4914 -4832 -5180 -4845 -4895 -4662 -4287 -4231 -4401 -4009 -3740 -3639 -3044 -2923 -2286 -1931 -1893 -1632 -1358 -1138 -744 -654 -838 -817 -837 -829 -509 -430 -560 -186 -311 32 87 81 110 -124 67 -306 -166 -231 -523 -561 -573 -565 -540 -522 -196 -370 -309 -275 12 75 115 -122 -68 -48 -71 -92 -84 -108 118 86 67 27 6 8 20 87 -93 -52 -55 -50 -42 -23 -23 -70 -76 -64 -62 -42 -4 317 329 332 318 286 263 297 338 360 356 343 324 374 187 215 211 184 189 178 211 227 526 542 544 526 517 533 552 591 634 390 631 599 612 612 601 600 604 612 618 391 407 422 398 416 396 411 453 504 807 834 838 809 788 771 783 828 881 691 728 705 657 895 663 717 750 757 766 1052 1122 947 996 1288 1023 986 989 1284 1015 994 1020 1347 1170 1239 1217 1214 1219 1192 1178 1215 1277 1603 1637 1617 1600 1597 1632 1454 1520 1812 1825 1835 1851 1892 1683 1712 1728 1735 1745 1780 2092 2117 2126 2137 2133 2128 2128 2137 1936 1992 2310 2341 2375 2405 2418 2411 2374 2350 2377 2188 2251 2267 2251 2216 2225 2215 2206 2187 2194 2229 2249 2285 2572 2296 2567 2287 2244 2251 2251 2236 2200 2382 2318 2335 2350 2376 2361 2031 1976 2151 2087 2052 1772 1731 1670 1859 1528 1485 1651 1572 1201 1360 1313 986 920 1138 1108 1045 718 854 478 636 515 206 165 324 -42 -124 41 9 11 -282 -322 -346 -161 -229 -541 -607 -632 -428 -769 -834 -846 -807 -800 -831 -865 -662 -705 -755 -1033 -1109 -938 -926 -1097 -1036 -768 -1071 -1118 -1128 -907 -964 -1001 -1011 -1001 -969 -929 -905 -1146 -1147 -923 -937 -934 -934 -1151 -1137 -1152 -952 -1000 -1015 -985 -937 -1129 -1114 -911 -958 -993 -962 -927 -928 -930 -912 -919 -946 -942 -940 -947 -970 -984 -972 -920 -903 -1151 -1131 -1127 -1143 -929 -922 -901 -936 -937 -935 -954 -937 -905 -1122 -1086 -1092 -1093 -1126 -913 -947 -932 -925 -910 -1151 -1137 -1124 -1083 -1072 -1074 -1091 -903 -932 -925 -897 -1137 -1100 -1047 -1039 -1053 -1081 -1064 -1060 -1036 -1056 -1074 -1088 -1080 -766 -680 -641 -878 -885 -662 -720 -761 -751 -674 -892 -653 -893 -893 -868 -877 -644 -674 -664 -649 -648 -642 -875 -875 -868 -888 -885 -894 -884 -837 -836 -850 -654 -876 -818 -791 -810 -827 -831 -861 -856 -851 -848 -887 -868 -849 -820 -830 -875 -875 -825 -838 -854 -821 -789 -795 -834 -863 -649 -651 -839 -817 -859 -891 -872 -814 -796 -821 -837 -870 -860 -862 -866 -819 -509 -512 -785 -815 -822 -816 -802 -787 -511 -782 -773 -491 -479 -474 -480 -498 -481 -464 -478 -469 -423 -632 -618 -632 -464 -785 -492 -617 -251 -213 -173 -359 -291 43 26 25 41 71 113 -111 -89 -91 -109 124 73 51 40 38 89 -89 -36 -27 311 355 128 176 232 538 562 584 619 633 589 543 531 530 238 187 348 267 -47 -87 -114 88 36 -300 -374 -216 -578 -390 -409 -425 -423 -390 -602 -634 -430 -467 -481 -504 -808 -864 -892 -642 -661 -687 -681 -691 -703 -663 -662 -680 -666 -665 -860 -806 -797 -805 -826 -859 -894 -886 -891 -837 -818 -850 -874 -650 -680 -689 -688 -659 -879 -869 -843 -817 -797 -789 -831 -864 -872 -848 -809 -787 -791 -795 -832 -872 -845 -811 -816 -843 -858 -815 -770 -495 -782 -831 -871 -644 -642 -859 -800 -506 -501 -773 -799 -793 -508 -800 -814 -786 -511 -502 -486 -493 -492 -478 -511 -799 -512 -458 -435 -422 -640 -595 -256 -173 -324 71 -24 145 582 779 757 952 1163 1432 1772 2414 2816 3003 3459 3815 4208 3999 3996 4180 3784 3574 3220 2898 1977 1227 474 -117 -555 -657 -1383 -2066 -2868 -3602 -3822 -4432 -4656 -4524 -4547 -4671 -4476 -4045 -4353 -4401 -4093 -4134 -3571 -3210 -3109 -2534 -2248 -2005 -1734 -1514 -1580 -1173 -1326 -987 -938 -905 -1111 -1073 -711 -842 -428 -522 -134 -257 46 40 -264 -354 -374 -136 -158 -222 -576 -627 -621 -581 -538 -236 -203 -181 -158 -379 -311 -266 23 21 14 16 -257 -263 -313 -341 -340 -321 -350 -367 -359 -332 -277 9 31 22 57 100 -122 -119 119 102 66 76 90 99 96 85 43 16 36 59 81 93 113 -72 -11 -24 -66 -104 -122 -76 -18 295 328 328 307 324 322 315 318 316 314 297 292 321 353 353 346 343 356 367 143 187 219 239 232 228 225 234 243 539 587 625 392 429 468 472 468 470 491 493 502 778 805 792 774 771 783 802 814 827 813 817 855 648 689 737 766 1033 767 751 767 1087 901 925 933 961 994 1289 1316 1347 1384 1406 1160 1159 1169 1202 1223 1274 1569 1581 1589 1574 1598 1621 1428 1513 1817 1853 1849 1852 1868 1665 1731 1766 2084 2124 2173 1984 2001 2016 2040 2322 2337 2362 2369 2344 2353 2358 2382 2417 2189 2209 2217 2220 2211 2425 2374 2379 2411 2195 2264 2573 2572 2297 2260 2262 2274 2276 2277 2296 2292 2267 2246 2202 2431 2376 2332 2314 2037 2007 1967 1945 2173 2153 2100 1781 1704 1896 1810 1476 1660 1582 1249 1192 1404 1335 983 906 1084 725 644 851 768 437 606 526 189 356 290 -24 -57 -84 100 7 -311 -374 -192 -248 -543 -598 -407 -468 -505 -791 -827 -857 -673 -737 -1040 -1057 -1102 -899 -952 -1010 -991 -986 -1006 -1288 -1291 -1304 -1341 -1373 -1376 -1361 -1349 -1336 -1319 -1316 -1319 -1321 -1335 -1353 -1358 -1378 -1380 -1374 -1344 -1341 -1356 -1154 -1187 -1178 -1201 -1200 -1188 -1198 -1201 -1213 -1221 -1232 -1218 -1190 -1178 -1168 -1169 -1407 -1163 -1176 -1159 -1389 -1380 -1368 -1363 -1372 -1398 -1405 -1173 -1188 -1205 -1200 -1195 -1154 -1340 -1328 -1351 -1381 -1374 -1353 -1330 -1317 -1298 -1286 -1018 -1000 -986 -974 -953 -945 -920 -907 -906 -923 -974 -993 -981 -985 -989 -965 -953 -950 -944 -927 -1134 -1150 -938 -947 -907 -1134 -1089 -1065 -1061 -1058 -1097 -1125 -1137 -1121 -1098 -1067 -1046 -1056 -1071 -1088 -1099 -1106 -1095 -1095 -1083 -1058 -761 -727 -708 -736 -756 -748 -738 -748 -736 -713 -702 -706 -707 -709 -740 -742 -731 -720 -727 -765 -1037 -1051 -1072 -1083 -1060 -1030 -749 -732 -738 -737 -749 -1045 -1081 -1065 -751 -702 -680 -696 -695 -710 -707 -692 -673 -689 -732 -760 -742 -745 -735 -718 -690 -738 -751 -729 -726 -707 -707 -721 -718 -666 -895 -877 -864 -865 -879 -893 -873 -854 -816 -817 -851 -864 -873 -880 -876 -872 -870 -856 -847 -842 -839 -827 -799 -801 -788 -784 -489 -430 -390 -579 -545 -531 -248 -190 -153 -366 -292 40 103 -98 -74 -83 -88 123 68 21 1 -269 4 12 49 113 -47 293 344 380 168 210 514 569 603 629 421 416 612 561 522 539 531 233 148 319 -21 -79 -121 76 8 -289 -343 -129 -151 -165 -170 -198 -221 -238 -232 -248 -530 -552 -565 -609 -401 -436 -452 -487 -787 -828 -865 -891 -650 -874 -812 -778 -778 -782 -498 -477 -458 -451 -442 -453 -471 -469 -435 -420 -436 -474 -485 -775 -795 -796 -778 -783 -816 -797 -481 -420 -403 -399 -386 -626 -640 -407 -430 -411 -391 -396 -416 -406 -387 -627 -397 -431 -456 -480 -479 -456 -640 -596 -586 -633 -392 -406 -426 -408 -626 -597 -622 -414 -414 -392 -614 -611 -612 -613 -612 -629 -640 -389 -411 -436 -415 -623 -548 -237 -176 -341 8 -109 339 569 773 686 1130 1359 1575 1837 2129 2247 2693 3414 3885 3974 4372 4358 4041 3972 3839 3869 3250 2751 2376 1643 663 263 -230 -655 -1373 -1723 -2538 -3609 -4115 -4401 -4624 -4499 -4868 -4540 -4305 -4042 -4176 -4213 -4163 -3726 -3660 -3047 -2705 -2619 -2028 -1681 -1613 -1334 -1137 -721 -854 -504 -472 -511 -772 -462 -614 -217 -344 12 121 -26 293 325 320 297 -6 -96 57 -266 -317 -352 -363 -343 -304 13 83 126 -122 -119 -101 -43 269 271 -8 -2 -2 -25 -62 -50 -73 -61 -64 -56 -55 -24 267 286 304 301 310 298 311 329 330 340 331 327 350 136 156 141 356 337 338 349 355 369 136 198 221 237 243 235 239 185 160 149 172 204 248 514 243 519 545 577 559 567 587 616 626 616 618 400 446 472 439 627 600 624 428 476 504 479 459 437 431 470 493 509 775 783 812 831 845 888 649 671 675 690 704 714 715 756 1068 1100 1101 1098 1086 1110 1148 941 953 975 992 1022 1321 1344 1339 1313 1020 1333 1154 1209 1230 1234 1266 1279 1548 1539 1567 1617 1431 1452 1446 1455 1481 1511 1527 1814 1840 1857 1858 1879 1900 1671 1700 1755 2053 2086 2094 2111 2130 2113 2089 2096 2170 2012 2334 2355 2369 2405 2400 2392 2403 2428 2206 2242 2254 2246 2231 2219 2215 2217 2246 2294 2589 2602 2615 2620 2598 2574 2296 2299 2573 2579 2584 2595 2603 2600 2287 2237 2194 2414 2408 2390 2371 2306 1956 2154 2078 1731 1887 1832 1530 1476 1663 1594 1270 1232 1178 1330 975 904 1124 1062 740 675 833 492 448 624 549 245 212 129 271 -51 118 53 -313 -149 -204 -532 -584 -639 -472 -804 -863 -896 -661 -683 -717 -730 -1035 -1078 -1121 -1137 -1137 -934 -987 -1307 -1327 -1324 -1327 -1335 -1331 -1321 -1324 -1325 -1342 -1365 -1401 -1401 -1171 -1177 -1182 -1156 -1378 -1382 -1382 -1378 -1383 -1157 -1188 -1196 -1193 -1185 -1201 -1211 -1221 -1244 -1271 -1269 -1546 -1558 -1570 -1275 -1242 -1222 -1205 -1204 -1208 -1231 -1221 -1163 -1396 -1396 -1398 -1373 -1355 -1348 -1348 -1324 -1327 -1335 -1348 -1366 -1365 -1384 -1380 -1384 -1366 -1370 -1379 -1370 -1387 -1401 -1153 -1162 -1182 -1191 -1167 -1381 -1341 -1306 -1284 -1286 -1333 -1371 -1362 -1363 -1366 -1360 -1367 -1374 -1366 -1361 -1347 -1332 -1331 -1337 -1347 -1342 -1350 -1373 -1358 -1325 -1324 -1322 -1315 -1329 -1312 -1318 -1357 -1332 -1310 -1297 -1313 -1017 -986 -969 -970 -1014 -1331 -1369 -1361 -1308 -970 -978 -980 -983 -992 -1003 -976 -951 -936 -949 -993 -1005 -962 -930 -951 -943 -978 -998 -998 -992 -986 -1017 -991 -937 -1143 -1144 -1150 -926 -907 -910 -908 -900 -1139 -1145 -905 -925 -943 -1123 -1089 -1036 -1039 -1064 -1085 -1133 -1134 -1132 -1135 -1126 -1119 -900 -899 -1147 -898 -1130 -1123 -1074 -1054 -1044 -1041 -1048 -1071 -1072 -1065 -1065 -1037 -1042 -1030 -747 -744 -751 -730 -729 -725 -705 -734 -762 -742 -692 -653 -882 -873 -847 -829 -798 -790 -780 -777 -495 -450 -386 -573 -254 -202 -166 -131 -316 -264 43 61 71 95 107 78 67 60 44 13 -272 -287 -299 27 -78 307 147 217 514 545 541 548 566 591 582 608 561 254 220 232 222 171 348 284 -38 -116 56 -286 -365 -187 -244 -535 -545 -560 -582 -612 -636 -631 -635 -400 -454 -769 -805 -839 -868 -648 -680 -719 -750 -1027 -767 -765 -766 -754 -749 -750 -754 -764 -751 -730 -711 -707 -699 -679 -649 -893 -660 -725 -1036 -1093 -1137 -1143 -1122 -1108 -1118 -1089 -1061 -1031 -756 -740 -744 -755 -751 -744 -720 -720 -730 -759 -758 -760 -756 -735 -729 -756 -1027 -1034 -1027 -758 -1030 -750 -749 -740 -736 -726 -694 -672 -674 -668 -679 -712 -701 -724 -715 -723 -733 -766 -752 -740 -716 -707 -707 -711 -704 -728 -712 -676 -889 -851 -804 -488 -402 -533 -356 109 315 244 419 640 1142 1154 1443 1755 2409 2874 3373 3529 3726 3756 3959 3879 3541 3632 3339 2902 2045 1574 813 87 -507 -979 -1437 -1959 -2935 -3507 -4369 -4713 -4962 -4862 -5036 -5081 -5172 -4895 -4666 -4351 -4282 -4069 -3742 -3699 -3406 -3079 -2438 -2323 -1732 -1462 -1195 -983 -768 -667 -894 -663 -684 -658 -809 -443 -604 -242 -133 -291 -258 -261 -323 -131 -189 -181 -195 -513 -606 -410 -483 -498 -495 -457 -619 -539 -232 -196 -355 -292 -273 -275 -267 -277 -278 -296 -300 -356 -130 -379 -339 -339 -303 -309 3 41 36 54 50 69 83 81 74 99 114 122 113 126 117 125 101 -127 -115 -99 -101 -76 -87 -72 -80 -78 -57 -23 277 307 286 278 285 299 307 314 308 324 363 146 187 219 224 215 198 210 219 248 523 547 547 521 517 538 565 589 385 400 630 624 398 436 436 459 498 813 841 829 820 817 844 884 642 641 893 877 886 649 653 672 712 733 748 758 766 1030 1030 762 756 1036 1089 1148 949 1003 1022 1291 1283 1016 1021 1294 1320 1343 1348 1379 1158 1208 1235 1263 1542 1554 1537 1555 1605 1649 1453 1479 1488 1524 1810 1823 1879 1910 1683 1718 1707 1751 2050 2094 2145 1927 1948 1969 2011 2306 2045 2023 2010 2010 2026 2323 2401 2236 2269 2257 2282 2270 2263 2274 2255 2259 2274 2300 2601 2627 2617 2593 2573 2574 2602 2623 2630 2593 2266 2200 2191 2206 2176 2401 2371 2332 2047 2014 1976 1922 2112 1787 1725 1684 1914 1888 1833 1475 1610 1260 1188 1397 1372 1338 1017 940 1101 750 640 808 470 635 540 198 355 265 -40 -90 88 15 -294 -352 -164 -227 -544 -597 -399 -438 -467 -773 -817 -850 -880 -648 -704 -758 -1061 -1082 -1123 -943 -1018 -1294 -1284 -1286 -1311 -1341 -1363 -1395 -1160 -1162 -1173 -1175 -1183 -1190 -1212 -1244 -1263 -1268 -1545 -1278 -1233 -1200 -1202 -1244 -1262 -1562 -1591 -1618 -1656 -1645 -1595 -1594 -1612 -1612 -1580 -1562 -1552 -1552 -1559 -1571 -1587 -1589 -1585 -1555 -1259 -1233 -1258 -1256 -1211 -1186 -1159 -1407 -1171 -1178 -1175 -1172 -1387 -1382 -1153 -1182 -1195 -1185 -1179 -1180 -1169 -1160 -1163 -1162 -1406 -1164 -1167 -1199 -1181 -1372 -1322 -1318 -1310 -1303 -1305 -1326 -1337 -1321 -1310 -1296 -1010 -1015 -1007 -1004 -1001 -1018 -1018 -1008 -992 -984 -976 -983 -1021 -1311 -1335 -1317 -1319 -1318 -1301 -1287 -1321 -1344 -1352 -1319 -1283 -1005 -984 -1000 -1015 -996 -950 -951 -957 -980 -998 -944 -1151 -1081 -1063 -1048 -1039 -1056 -1085 -1102 -1071 -1051 -1028 -1044 -1038 -1045 -1030 -753 -723 -714 -732 -758 -761 -729 -708 -704 -709 -692 -691 -697 -684 -702 -705 -693 -688 -715 -730 -737 -713 -706 -723 -733 -716 -691 -688 -672 -654 -895 -666 -711 -699 -654 -861 -825 -835 -876 -881 -877 -869 -648 -893 -896 -895 -881 -887 -851 -807 -827 -856 -872 -879 -851 -832 -845 -845 -862 -842 -847 -826 -816 -801 -820 -850 -867 -887 -840 -844 -853 -837 -786 -473 -459 -470 -466 -447 -429 -634 -614 -581 -538 -211 -170 -138 -374 -371 -321 -260 56 108 -126 -101 -105 -123 -119 123 108 -125 99 97 83 88 115 -49 317 155 241 560 624 387 423 455 460 482 481 446 631 578 565 535 240 162 349 283 -29 -106 96 12 -357 -164 -224 -221 -200 -220 -236 -242 -524 -521 -523 -528 -569 -636 -429 -471 -512 -791 -815 -825 -837 -850 -852 -860 -857 -843 -819 -810 -800 -810 -801 -776 -462 -438 -432 -429 -416 -432 -504 -787 -818 -875 -658 -683 -680 -880 -830 -773 -509 -794 -792 -783 -781 -789 -814 -817 -782 -511 -501 -487 -473 -493 -772 -796 -809 -796 -803 -771 -487 -477 -486 -493 -501 -503 -470 -430 -412 -404 -420 -432 -444 -468 -493 -780 -788 -806 -800 -775 -483 -440 -435 -405 -451 -471 -492 -772 -450 -431 -399 -413 -385 -390 -615 -527 -205 -147 -335 79 -1 159 625 848 1099 1299 1257 1534 2157 2581 2777 3306 3759 4008 4036 4013 4211 4155 3755 3460 3005 2649 1701 948 533 -345 -812 -1016 -1831 -2599 -3203 -3769 -4074 -4300 -4496 -4880 -4877 -4693 -4247 -4354 -4086 -3988 -3812 -3498 -3376 -2755 -2646 -2321 -1696 -1621 -1361 -1134 -674 -509 -404 -605 -616 -629 -601 -526 -150 -280 75 -81 -38 -11 264 265 -22 -73 110 33 -306 -365 -138 -151 -371 -302 -263 33 83 -104 -32 303 355 362 380 142 371 306 -31 -91 -123 105 66 85 -123 -74 -63 -92 106 100 -92 273 301 309 340 354 366 143 176 204 199 157 129 148 166 155 154 186 222 222 216 206 226 522 525 523 541 544 522 239 218 193 208 219 241 254 526 540 536 528 543 576 594 599 574 572 581 594 605 389 435 475 777 821 860 867 868 671 696 669 890 865 825 828 832 882 678 722 731 754 739 752 744 743 1029 1048 1031 1048 1053 1061 1061 1069 1117 923 997 1292 1311 1322 1321 1316 1314 1345 1367 1386 1179 1227 1238 1253 1536 1250 1227 1233 1540 1577 1590 1620 1642 1408 1438 1450 1417 1631 1429 1506 1826 1869 1883 1910 1701 1761 1771 2065 2106 2139 2160 1932 1982 2017 2023 2029 2025 1988 1943 1933 1938 1982 2311 2365 2368 2371 2378 2391 2409 2426 2193 2201 2186 2421 2410 2419 2423 2185 2189 2251 2617 2661 2660 2618 2301 2263 2232 2426 2391 2340 2026 1971 1958 1947 1961 1991 1942 2068 1686 1904 1878 1832 1535 1477 1410 1593 1246 1201 1154 1362 1289 952 1140 1073 719 893 831 771 416 590 529 226 160 374 280 -94 55 29 39 2 -308 -365 -206 -526 -254 -236 -539 -597 -429 -472 -500 -500 -787 -822 -854 -689 -756 -737 -732 -1040 -1150 -967 -954 -919 -1137 -918 -940 -942 -958 -990 -1008 -1006 -1020 -1021 -1005 -1288 -1294 -1318 -1298 -977 -941 -963 -988 -1021 -988 -1002 -1292 -1024 -964 -935 -961 -1014 -1015 -1006 -957 -942 -919 -898 -912 -975 -1016 -1016 -988 -1000 -1011 -974 -942 -971 -990 -987 -996 -987 -988 -1001 -1010 -993 -994 -974 -953 -951 -955 -970 -964 -955 -951 -918 -908 -938 -932 -908 -912 -923 -905 -1147 -1149 -1096 -1034 -748 -747 -1029 -1052 -1053 -756 -706 -669 -679 -710 -736 -743 -741 -735 -752 -1027 -759 -707 -691 -688 -717 -747 -1035 -1062 -1052 -1026 -1032 -766 -755 -710 -681 -672 -668 -650 -884 -860 -655 -706 -722 -669 -881 -871 -834 -821 -800 -781 -832 -836 -854 -835 -827 -856 -882 -860 -880 -896 -643 -883 -832 -835 -847 -864 -870 -884 -856 -865 -864 -651 -896 -892 -880 -647 -674 -659 -879 -871 -863 -673 -715 -708 -685 -889 -855 -896 -651 -884 -646 -672 -882 -651 -679 -692 -677 -890 -811 -785 -503 -485 -490 -770 -827 -837 -873 -844 -806 -790 -797 -816 -828 -800 -806 -782 -457 -625 -584 -617 -393 -401 -399 -412 -603 -563 -524 -238 -254 -515 -225 -162 -339 -266 42 64 100 127 80 47 117 -85 -98 -84 -95 115 91 117 -100 -102 -98 -30 310 378 155 177 187 233 539 587 406 455 438 603 526 224 192 178 162 142 344 280 -29 -96 48 -278 -327 -364 -384 -173 -214 -226 -534 -568 -537 -542 -585 -387 -401 -392 -410 -444 -451 -490 -808 -870 -893 -863 -840 -825 -830 -859 -891 -890 -893 -857 -841 -850 -844 -825 -797 -773 -785 -851 -881 -672 -718 -705 -746 -762 -740 -754 -750 -743 -709 -667 -681 -730 -738 -689 -664 -892 -644 -890 -664 -669 -868 -885 -882 -892 -648 -887 -891 -659 -892 -867 -837 -798 -794 -494 -461 -456 -474 -480 -772 -502 -510 -507 -484 -471 -421 -430 -454 -451 -427 -400 -417 -468 -508 -512 -503 -482 -480 -464 -439 -428 -627 -554 -177 -312 87 261 175 616 832 1026 968 1222 1508 2096 2241 2935 3430 3847 4112 3969 4011 4039 3985 3839 3873 3224 2910 1996 1570 645 346 -339 -508 -1281 -1754 -2819 -3236 -3914 -4216 -4389 -4260 -4282 -4409 -4218 -3810 -4128 -4178 -4116 -3945 -3666 -3067 -2734 -2654 -2311 -1727 -1457 -1265 -1385 -991 -1121 -1038 -733 -671 -860 -783 -412 -534 -142 23 -101 -31 272 -4 -49 -117 76 27 -319 -157 -233 -540 -544 -523 -246 -197 -367 -335 -288 12 35 44 15 34 104 -128 -86 -120 127 127 103 79 91 102 116 -88 -66 -55 -29 265 288 294 292 302 292 276 -33 -69 -58 -14 277 259 260 -31 -75 -86 -81 -24 303 317 349 357 359 374 130 144 146 379 131 368 138 184 245 559 545 252 221 199 229 250 255 525 550 540 526 537 572 593 599 590 574 588 602 623 639 391 416 461 494 796 810 811 830 829 831 846 872 657 643 887 663 685 718 742 756 1034 1040 1034 1046 1060 1070 1096 1114 1136 916 944 954 979 1012 1309 1307 1299 1323 1364 1396 1193 1195 1188 1198 1216 1213 1251 1548 1593 1636 1408 1408 1425 1479 1519 1804 1830 1864 1885 1890 1903 1685 1711 1759 2052 2082 2093 2096 2107 2127 2157 2174 1954 1992 1979 1977 1994 2017 2306 2336 2360 2376 2400 2423 2194 2240 2240 2219 2221 2225 2266 2286 2298 2285 2233 2230 2225 2249 2233 2221 2192 2214 2210 2411 2357 2339 2337 2037 1971 1931 1936 1933 2164 2137 2057 1707 1892 1847 1525 1468 1645 1565 1261 1201 1377 1303 952 1106 763 685 864 800 458 606 517 168 336 308 275 -69 103 10 -331 -135 -211 -533 -591 -397 -457 -486 -805 -860 -660 -721 -1050 -1087 -1099 -1112 -915 -962 -1000 -1022 -1299 -1346 -1368 -1381 -1394 -1191 -1228 -1198 -1176 -1203 -1253 -1556 -1603 -1634 -1634 -1611 -1572 -1549 -1578 -1640 -1646 -1590 -1562 -1558 -1582 -1605 -1638 -1642 -1660 -1648 -1640 -1641 -1648 -1628 -1604 -1608 -1614 -1616 -1645 -1661 -1414 -1653 -1649 -1617 -1590 -1588 -1588 -1562 -1552 -1541 -1554 -1593 -1605 -1596 -1583 -1559 -1267 -1262 -1255 -1273 -1550 -1556 -1543 -1547 -1576 -1585 -1587 -1563 -1272 -1229 -1195 -1200 -1211 -1206 -1189 -1172 -1170 -1178 -1153 -1358 -1337 -1334 -1328 -1299 -1294 -1292 -1292 -1020 -1017 -1288 -1287 -1281 -1281 -1004 -971 -950 -942 -936 -928 -944 -953 -947 -918 -1146 -1143 -901 -1146 -1135 -1148 -900 -1151 -899 -1125 -1070 -1060 -1025 -1033 -1028 -1025 -1042 -1050 -1061 -1066 -1031 -767 -1059 -1071 -1059 -766 -727 -700 -729 -740 -1034 -1043 -768 -758 -759 -752 -742 -735 -749 -740 -724 -727 -731 -724 -729 -739 -758 -1027 -745 -759 -1043 -1046 -1047 -758 -704 -669 -679 -719 -723 -705 -694 -707 -709 -704 -690 -696 -685 -659 -896 -644 -889 -872 -855 -848 -879 -893 -651 -687 -714 -739 -720 -683 -670 -656 -664 -673 -671 -658 -696 -743 -768 -768 -757 -743 -727 -704 -688 -683 -687 -652 -641 -885 -874 -854 -808 -499 -456 -436 -413 -395 -616 -556 -518 -249 -239 -194 -138 -339 -312 -288 -263 7 34 7 -287 -345 -133 -144 -361 -292 40 111 -57 280 346 148 161 167 190 230 243 513 512 227 186 165 144 141 336 288 -57 74 13 -282 -333 -137 -203 -210 -210 -205 -216 -518 -573 -623 -627 -415 -422 -462 -503 -803 -806 -816 -812 -833 -870 -668 -689 -716 -735 -746 -736 -699 -658 -887 -847 -812 -796 -783 -776 -780 -503 -487 -480 -494 -785 -789 -804 -840 -859 -842 -836 -841 -875 -885 -845 -805 -804 -802 -816 -816 -815 -787 -502 -488 -483 -487 -497 -502 -499 -464 -472 -495 -502 -500 -494 -466 -459 -443 -441 -452 -441 -425 -405 -408 -412 -435 -448 -434 -432 -427 -398 -388 -396 -386 -625 -616 -624 -615 -613 -629 -632 -385 -603 -566 -546 -536 -250 -198 -358 16 -79 337 516 458 673 905 1394 1628 1905 1990 2622 3079 3588 3765 4004 4053 4004 4205 4116 3730 3472 3039 2675 1711 1022 590 9 -438 -1119 -1592 -2037 -3137 -3581 -4183 -4424 -4323 -4735 -4534 -4636 -4399 -4201 -4174 -4187 -3831 -3880 -3293 -2997 -2923 -2297 -1943 -1891 -1610 -1370 -911 -1027 -663 -852 -823 -820 -812 -482 -611 -212 -334 50 -103 -24 260 -9 -69 119 50 -265 -331 -144 -213 -225 -214 -176 -129 -320 -278 11 35 89 -126 -109 -116 -99 -110 110 88 71 57 38 30 21 9 1 20 43 52 55 86 -115 -85 -81 -70 -31 -16 -19 -55 -56 -68 -82 -76 -46 -15 -18 -20 -10 285 314 319 314 311 328 370 149 166 156 162 161 153 134 378 135 146 155 163 190 205 222 216 207 197 183 192 224 524 543 566 573 583 580 589 603 612 606 627 390 401 622 606 389 424 457 769 830 852 840 818 835 868 875 652 681 734 1026 1078 1103 1090 1086 1096 1108 1120 1147 923 954 954 949 989 1020 1023 1288 1309 1309 1352 1376 1152 1160 1181 1215 1255 1565 1585 1607 1604 1620 1641 1426 1459 1503 1529 1828 1862 1888 1882 1913 1906 1683 1712 1715 1724 1782 2090 2132 2167 1921 1924 1943 1994 2311 2357 2391 2403 2408 2429 2191 2222 2243 2267 2287 2286 2296 2561 2597 2617 2632 2625 2618 2626 2630 2634 2625 2610 2603 2592 2592 2606 2641 2633 2591 2296 2277 2263 2211 2403 2349 2320 2040 2037 2020 1992 1937 2127 2049 1705 1896 1839 1517 1436 1617 1556 1240 1163 1326 968 900 1070 732 664 859 791 491 456 632 549 229 176 362 279 -41 -119 70 -263 -323 -360 -383 -193 -532 -635 -480 -849 -895 -865 -840 -875 -677 -715 -730 -758 -1038 -1059 -1079 -1104 -1124 -1125 -1149 -953 -999 -1017 -1286 -1288 -1313 -1334 -1334 -1335 -1339 -1358 -1381 -1155 -1170 -1155 -1395 -1390 -1382 -1387 -1377 -1366 -1356 -1362 -1353 -1342 -1363 -1367 -1372 -1366 -1380 -1369 -1371 -1388 -1394 -1404 -1396 -1391 -1380 -1385 -1363 -1372 -1393 -1366 -1316 -1300 -1305 -1321 -1331 -1342 -1340 -1329 -1335 -1331 -1329 -1310 -1298 -1304 -1308 -1329 -1343 -1347 -1352 -1361 -1331 -1017 -1008 -1285 -1324 -1326 -1290 -1012 -1024 -1315 -1335 -1310 -1292 -1299 -1295 -1020 -991 -980 -949 -936 -948 -953 -954 -933 -900 -902 -1144 -1146 -1141 -1141 -1126 -1116 -1106 -1113 -1128 -1141 -1146 -1140 -1125 -1120 -1139 -1150 -1149 -1123 -1086 -1059 -1058 -1072 -1078 -1104 -1119 -1098 -1063 -1045 -1040 -1052 -1060 -1079 -1079 -1063 -1053 -1060 -1077 -1091 -1085 -1079 -1082 -1089 -1075 -1096 -1105 -1120 -1107 -1084 -1052 -763 -747 -761 -1032 -1036 -766 -745 -754 -761 -761 -762 -749 -716 -712 -764 -1040 -1029 -758 -741 -728 -726 -728 -732 -728 -712 -713 -703 -674 -691 -744 -1043 -755 -742 -716 -678 -649 -654 -668 -710 -722 -716 -724 -728 -727 -743 -737 -768 -1034 -760 -721 -719 -727 -714 -735 -752 -766 -723 -705 -703 -706 -703 -708 -709 -729 -713 -677 -650 -896 -880 -861 -845 -804 -507 -465 -448 -446 -437 -388 -601 -576 -247 -179 -143 -380 -339 -291 31 99 -118 -126 -119 -108 -119 108 70 27 39 75 110 -91 -9 352 194 542 583 592 617 404 452 478 462 419 605 549 219 137 311 273 -7 -44 -98 107 18 -322 -130 -189 -245 -545 -577 -597 -617 -625 -613 -611 -632 -403 -437 -457 -771 -811 -865 -642 -675 -698 -720 -734 -748 -768 -1057 -1053 -1034 -743 -717 -670 -644 -865 -863 -836 -835 -838 -852 -884 -670 -700 -719 -747 -741 -749 -761 -1054 -1098 -1130 -1146 -1124 -1098 -1069 -1069 -1062 -1042 -764 -765 -768 -1066 -1100 -1109 -1085 -1080 -1062 -1051 -1052 -1036 -1032 -1028 -753 -764 -1053 -1026 -1025 -762 -754 -768 -1037 -1062 -1078 -1056 -1032 -768 -750 -741 -722 -720 -732 -708 -687 -704 -704 -718 -740 -764 -759 -727 -676 -876 -833 -809 -502 -417 -598 -209 -338 86 329 600 847 1064 1012 1250 1808 2175 2593 2794 3284 3875 3765 3774 3714 3888 3508 3298 3194 2659 1733 996 515 -201 -734 -1165 -1887 -2226 -3005 -3798 -4305 -4867 -4829 -5247 -5380 -5082 -5167 -4920 -4510 -4729 -4352 -4095 -3733 -3667 -3368 -2796 -2457 -2364 -1777 -1490 -1239 -1297 -930 -1139 -1105 -1101 -1102 -1052 -696 -832 -434 -543 -206 -138 -374 -365 -375 -166 -247 -576 -635 -464 -787 -831 -818 -804 -773 -487 -436 -405 -609 -552 -517 -211 -215 -190 -184 -193 -207 -200 -214 -520 -531 -533 -522 -231 -213 -219 -238 -217 -191 -160 -372 -382 -134 -362 -334 -339 -364 -369 -352 -332 -313 -312 -322 -308 -295 -280 -281 -269 6 45 78 45 5 -290 -285 -262 29 47 42 47 59 99 -95 -72 -94 -94 -79 -61 -56 -39 -25 -12 278 310 337 341 366 136 136 382 369 372 148 150 171 204 226 242 523 575 594 613 602 597 589 619 405 401 409 412 424 443 486 769 507 503 509 781 791 820 868 644 675 700 736 750 745 746 750 1035 1072 1131 907 913 912 927 947 967 1006 1292 1304 1333 1378 1163 1194 1225 1245 1550 1595 1637 1648 1418 1463 1500 1799 1832 1870 1896 1677 1720 1769 1760 1776 2058 2072 2116 2159 2158 2159 1942 2035 2347 2369 2370 2377 2392 2397 2375 2421 2218 2222 2264 2292 2289 2290 2273 2280 2571 2581 2296 2295 2291 2563 2602 2612 2579 2303 2262 2225 2200 2180 2403 2421 2401 2356 2027 1964 2164 2168 2117 2069 1769 1727 1908 1836 1516 1470 1410 1561 1227 1172 1353 1000 935 1149 1071 735 877 509 419 617 573 552 242 149 316 258 -69 101 10 -306 -377 -194 -244 -513 -533 -577 -385 -498 -849 -883 -668 -710 -761 -1085 -1095 -1107 -1125 -912 -963 -985 -1005 -1301 -1347 -1343 -1345 -1364 -1173 -1226 -1246 -1234 -1188 -1408 -1180 -1192 -1185 -1209 -1249 -1271 -1279 -1547 -1600 -1622 -1611 -1569 -1273 -1240 -1234 -1247 -1248 -1256 -1273 -1558 -1551 -1539 -1570 -1589 -1580 -1559 -1260 -1242 -1263 -1277 -1270 -1262 -1274 -1548 -1568 -1608 -1624 -1565 -1539 -1547 -1551 -1545 -1538 -1273 -1250 -1221 -1202 -1197 -1224 -1227 -1229 -1233 -1229 -1208 -1163 -1162 -1195 -1187 -1217 -1274 -1256 -1249 -1228 -1205 -1206 -1169 -1394 -1391 -1396 -1404 -1160 -1179 -1186 -1168 -1402 -1393 -1388 -1364 -1314 -1312 -1316 -1315 -1314 -1292 -1302 -1328 -1295 -990 -1000 -1308 -1305 -1296 -992 -969 -977 -996 -981 -979 -973 -972 -951 -970 -968 -973 -1000 -1012 -1005 -982 -955 -925 -936 -932 -952 -914 -903 -905 -900 -945 -960 -924 -903 -1139 -1137 -941 -959 -955 -940 -945 -968 -984 -982 -956 -918 -898 -927 -943 -978 -964 -934 -929 -927 -924 -903 -1141 -1112 -1065 -1038 -1051 -1100 -1102 -1102 -1085 -1104 -1102 -1119 -1108 -1129 -1116 -1067 -1034 -745 -742 -768 -1081 -1112 -1108 -1064 -763 -725 -723 -724 -717 -696 -694 -708 -715 -726 -702 -675 -643 -855 -871 -652 -665 -655 -892 -871 -869 -877 -868 -854 -887 -653 -888 -879 -842 -769 -460 -440 -444 -432 -439 -423 -385 -615 -544 -225 -188 -183 -147 -349 -278 63 112 112 117 124 121 75 -257 -330 -354 -314 -286 60 -91 -3 335 180 252 550 576 590 605 630 419 441 441 630 527 215 208 208 178 357 305 -44 -118 77 -271 -358 -175 -214 -525 -558 -591 -630 -619 -577 -546 -550 -599 -387 -414 -454 -505 -812 -849 -686 -718 -742 -759 -1034 -1045 -1045 -1052 -1046 -1036 -753 -727 -726 -751 -1034 -1031 -768 -761 -1027 -768 -1025 -1049 -1055 -1027 -733 -1029 -1080 -1079 -1053 -757 -708 -681 -663 -655 -662 -670 -696 -676 -651 -652 -684 -664 -645 -657 -684 -711 -733 -727 -698 -688 -714 -756 -748 -696 -887 -848 -828 -837 -864 -880 -655 -896 -647 -681 -723 -721 -678 -655 -646 -658 -896 -809 -487 -769 -820 -856 -874 -894 -853 -820 -832 -799 -436 -565 -192 -315 47 -94 329 548 789 758 946 1165 1454 1753 2380 2820 3044 3542 4203 4363 4079 4023 4209 3810 3860 3275 2780 2377 1659 683 337 -180 -888 -1327 -1717 -2838 -3630 -4153 -4247 -4715 -4601 -4942 -4875 -4671 -4463 -4432 -4445 -4071 -4131 -3562 -3434 -2811 -2469 -2406 -2074 -1479 -1220 -1308 -1149 -740 -893 -836 -500 -438 -409 -614 -567 -201 -318 39 -91 -26 -30 -54 -81 -118 78 11 -332 -149 -189 -206 -200 -234 -214 -137 -279 52 99 122 113 -127 -99 -115 123 105 106 110 120 76 24 1 17 59 -73 268 272 267 262 256 262 -7 266 324 364 359 348 372 383 362 335 322 331 370 131 137 130 374 345 359 154 198 199 172 149 380 351 349 379 131 383 156 252 564 569 533 253 528 538 596 400 412 421 393 600 599 393 461 483 457 421 425 439 436 421 425 429 489 821 868 869 859 657 666 889 877 648 691 702 729 716 708 738 756 724 694 697 757 1107 896 909 953 1014 1020 967 941 983 1338 1388 1400 1153 1192 1212 1216 1197 1218 1271 1598 1656 1485 1522 1508 1492 1480 1472 1499 1527 1846 1888 1669 1676 1693 1722 1767 1758 1785 2072 2098 2120 2156 1939 1952 1996 2018 2328 2377 2400 2187 2187 2357 2316 2371 2225 2293 2601 2572 2242 2222 2233 2232 2269 2283 2581 2583 2572 2580 2625 2626 2607 2608 2624 2678 2478 2500 2501 2450 2663 2657 2441 2659 2610 2596 2569 2274 2245 2203 2403 2340 2008 1946 2163 2098 1779 1733 1682 1859 1522 1454 1645 1579 1241 1392 1307 972 1108 748 718 728 727 670 854 493 385 251 163 336 -19 -81 -120 90 30 -288 -311 -312 -129 -199 -226 -547 -635 -450 -508 -820 -849 -879 -651 -653 -643 -693 -767 -1052 -1067 -1073 -1078 -1118 -1144 -1152 -900 -1151 -900 -939 -984 -948 -922 -917 -931 -937 -926 -942 -970 -975 -938 -934 -957 -985 -982 -957 -980 -1021 -1318 -1332 -1365 -1385 -1395 -1366 -1292 -987 -997 -1287 -1016 -1006 -989 -1002 -1004 -1007 -989 -971 -928 -1138 -906 -931 -936 -905 -1130 -1144 -1148 -1134 -1141 -920 -948 -971 -971 -986 -968 -921 -1128 -1080 -1036 -751 -1027 -1052 -1058 -1059 -1073 -1045 -728 -671 -677 -690 -705 -685 -661 -673 -680 -701 -712 -691 -658 -892 -646 -663 -682 -736 -755 -747 -736 -731 -718 -714 -730 -760 -1049 -1066 -1055 -1032 -728 -683 -655 -650 -692 -716 -721 -720 -709 -679 -666 -671 -682 -670 -891 -877 -858 -865 -661 -728 -715 -641 -852 -831 -845 -652 -689 -705 -703 -699 -690 -688 -678 -679 -659 -877 -888 -655 -895 -869 -883 -652 -661 -680 -703 -727 -716 -691 -673 -658 -890 -882 -647 -657 -650 -874 -890 -676 -665 -663 -686 -703 -696 -678 -651 -659 -657 -871 -864 -852 -829 -852 -854 -862 -872 -862 -846 -828 -830 -882 -670 -665 -651 -681 -696 -686 -882 -834 -817 -801 -814 -826 -804 -784 -498 -453 -418 -617 -549 -250 -523 -538 -240 -151 -342 -301 2 60 97 82 63 77 92 73 18 -275 -338 -367 -329 10 105 -88 -29 265 290 317 337 383 200 226 252 519 216 165 156 153 154 157 372 290 -38 -76 -117 107 50 -269 -329 -132 -170 -208 -229 -249 -532 -570 -600 -615 -390 -431 -460 -473 -478 -500 -508 -796 -836 -871 -646 -680 -668 -643 -887 -879 -869 -846 -819 -776 -779 -790 -776 -778 -770 -499 -769 -817 -865 -665 -701 -688 -667 -671 -709 -742 -758 -739 -703 -652 -649 -652 -643 -642 -648 -894 -645 -695 -746 -1029 -737 -743 -1029 -735 -667 -646 -678 -702 -685 -650 -895 -641 -668 -644 -648 -660 -667 -658 -875 -871 -878 -644 -667 -666 -660 -650 -673 -666 -894 -871 -872 -862 -863 -889 -891 -867 -823 -790 -497 -473 -404 -513 -365 80 320 558 493 675 1123 1328 1594 1895 1997 2676 3147 3622 3805 4034 4076 4029 3986 4129 3964 3680 3190 2266 1512 745 146 -292 -421 -1142 -1499 -2292 -3039 -3847 -4186 -4456 -4630 -4723 -4666 -4253 -4355 -4376 -4456 -4410 -4007 -3722 -3636 -3038 -2692 -2611 -2305 -1771 -1803 -1620 -1215 -1349 -990 -1150 -1061 -733 -697 -882 -484 -551 -146 -283 82 -94 -61 -85 -122 69 -276 -351 -159 -218 -527 -602 -400 -637 -587 -527 -198 -383 -350 -305 -271 18 32 53 58 9 -320 -154 -181 -178 -170 -158 -383 -357 -352 -345 -358 -354 -330 -302 -263 16 23 13 12 34 59 61 88 103 85 33 -264 -265 4 27 32 70 108 90 55 71 102 107 -119 -96 -70 -79 -73 -66 -69 -63 -59 -17 282 325 322 344 359 353 362 359 358 362 381 381 372 368 149 219 254 525 536 573 576 597 626 639 389 403 425 449 485 801 871 885 856 841 874 877 870 640 678 734 760 1037 1029 767 1052 1085 1116 1149 923 906 926 947 957 972 1006 1303 1346 1403 1190 1214 1237 1259 1540 1556 1565 1556 1566 1586 1644 1432 1497 1811 1848 1856 1862 1868 1840 1846 1864 1897 1704 1766 1789 1791 2074 2112 2174 1962 2003 2032 2045 2024 2020 2040 2317 2315 2306 2326 2409 2216 2230 2219 2237 2254 2266 2254 2241 2240 2277 2282 2264 2260 2281 2590 2633 2658 2646 2635 2584 2299 2275 2270 2286 2291 2277 2221 2203 2223 2234 2430 2398 2352 2041 1999 1977 1965 1924 2104 1754 1907 1841 1512 1449 1630 1272 1189 1341 1007 966 912 1055 679 842 785 467 639 554 172 352 311 -33 -71 126 46 -267 -347 -140 -174 -223 -576 -410 -458 -507 -817 -851 -665 -686 -720 -1029 -1043 -758 -757 -1050 -1109 -918 -945 -945 -952 -954 -967 -1012 -1298 -1020 -993 -950 -959 -980 -1022 -1311 -1329 -1324 -1306 -1299 -1288 -1290 -1322 -1357 -1344 -1307 -1288 -1293 -1297 -1316 -1347 -1354 -1371 -1367 -1389 -1403 -1359 -1335 -1317 -1308 -1286 -1284 -1282 -1282 -1292 -1315 -1307 -1024 -1018 -980 -975 -1008 -1290 -1019 -1005 -982 -952 -959 -953 -961 -988 -1290 -1313 -1308 -1024 -964 -934 -938 -950 -950 -969 -976 -959 -949 -955 -956 -934 -941 -977 -997 -983 -973 -945 -1148 -1120 -1124 -1152 -902 -914 -908 -915 -904 -1128 -1129 -1140 -1134 -1116 -1113 -1086 -1069 -1071 -1080 -1080 -1057 -1066 -1080 -1085 -1078 -1082 -1086 -1069 -1064 -1085 -1126 -1144 -1135 -1108 -1094 -1077 -1076 -1062 -1057 -1055 -1062 -1086 -1090 -1098 -1106 -1123 -1148 -1130 -1109 -1096 -1098 -1112 -1097 -1109 -1116 -1095 -1068 -1048 -1059 -1043 -740 -734 -1036 -1057 -1039 -734 -707 -710 -705 -696 -715 -710 -693 -716 -738 -751 -1053 -1091 -1092 -1110 -1112 -1095 -1108 -1106 -1073 -1074 -1047 -757 -743 -764 -766 -1055 -1083 -1083 -1052 -1037 -765 -767 -761 -758 -762 -731 -679 -670 -689 -708 -717 -725 -724 -712 -727 -750 -755 -744 -739 -705 -677 -663 -659 -651 -889 -877 -860 -845 -856 -863 -794 -436 -609 -572 -548 -551 -543 -235 -175 -371 -325 -270 35 65 68 75 83 77 64 44 5 -273 18 70 -118 -63 -11 312 362 159 210 250 526 535 527 545 560 545 242 185 168 166 148 353 284 -35 -123 57 -300 -345 -382 -175 -197 -229 -515 -515 -538 -565 -556 -548 -567 -620 -416 -464 -502 -808 -823 -826 -859 -895 -663 -657 -681 -689 -657 -847 -863 -880 -883 -861 -848 -810 -829 -803 -779 -483 -459 -437 -450 -484 -504 -806 -882 -660 -871 -844 -831 -829 -821 -801 -795 -781 -509 -502 -510 -781 -795 -785 -772 -780 -783 -797 -809 -796 -774 -511 -510 -778 -808 -827 -803 -787 -770 -489 -472 -502 -792 -810 -819 -794 -491 -477 -492 -771 -794 -805 -811 -819 -822 -838 -837 -842 -806 -783 -503 -473 -437 -405 -602 -247 -381 47 256 247 773 1035 1014 1205 1426 1712 2316 2509 3024 3514 4108 4000 3994 4175 4108 3766 3850 3229 2938 2047 1615 651 -11 -549 -739 -1206 -1761 -2546 -3630 -4186 -4240 -4690 -4578 -4947 -4914 -4492 -4262 -4392 -4437 -4394 -4197 -3897 -3298 -2964 -2881 -2286 -1926 -1848 -1573 -1345 -899 -742 -665 -892 -651 -657 -842 -472 -588 -179 -283 98 -70 -23 -13 -41 -79 122 49 -285 -363 -197 -232 -230 -232 -199 -137 -308 5 72 101 -125 -113 122 100 88 115 -111 -69 -68 -108 90 75 87 95 116 -117 -109 -73 -53 -28 272 325 346 333 322 311 306 328 311 288 272 317 368 144 174 183 175 153 155 180 191 210 218 204 190 189 223 235 212 213 239 242 253 514 524 516 243 517 536 537 540 573 600 614 632 393 393 395 411 426 412 400 395 397 408 428 457 485 509 780 831 651 675 684 664 645 894 686 743 767 764 760 1032 1072 1109 898 926 941 930 918 926 940 961 971 1022 1313 1331 1318 997 1013 1330 1403 1194 1223 1216 1231 1277 1561 1587 1603 1621 1425 1446 1488 1514 1519 1827 1856 1892 1691 1719 1736 1756 1770 2078 2092 2109 2109 2101 2160 1938 1976 1995 2011 2046 2310 2329 2343 2359 2369 2377 2373 2388 2418 2200 2224 2243 2250 2256 2286 2592 2632 2653 2685 2675 2648 2659 2681 2458 2464 2459 2466 2493 2500 2475 2451 2677 2656 2648 2636 2620 2621 2606 2302 2265 2248 2238 2208 2414 2340 2034 1977 1929 2133 2070 1773 1716 1905 1814 1515 1460 1623 1256 1182 1388 1329 989 1150 1051 697 871 812 480 401 578 527 212 137 289 -58 109 44 -283 -356 -141 -140 -380 -164 -199 -232 -550 -619 -432 -479 -773 -795 -815 -822 -818 -802 -821 -889 -726 -756 -765 -1075 -1098 -1071 -1062 -1075 -1095 -1105 -1078 -1073 -1075 -1072 -1074 -1069 -1067 -1071 -1055 -1044 -1062 -1058 -1040 -1069 -1077 -1072 -1069 -1069 -1101 -1143 -1152 -1147 -1134 -1144 -1118 -1084 -1104 -1103 -1121 -1103 -1103 -1064 -1073 -1073 -1077 -1068 -1078 -1065 -1089 -1101 -1113 -1109 -1111 -1088 -1080 -1102 -1097 -1071 -1056 -1068 -1090 -1082 -1059 -1059 -1066 -1082 -1100 -1081 -1054 -1039 -763 -753 -748 -744 -760 -1046 -1065 -1060 -1040 -763 -746 -736 -735 -713 -687 -675 -669 -692 -716 -740 -723 -699 -689 -674 -653 -645 -894 -860 -835 -826 -879 -891 -647 -641 -869 -833 -834 -832 -832 -851 -846 -863 -871 -853 -819 -817 -827 -833 -821 -799 -798 -807 -813 -823 -811 -799 -797 -806 -839 -872 -886 -862 -868 -860 -831 -828 -809 -806 -813 -808 -809 -790 -509 -500 -504 -507 -491 -492 -494 -480 -460 -468 -493 -511 -777 -791 -788 -772 -490 -499 -501 -507 -770 -783 -790 -787 -503 -483 -490 -480 -476 -488 -491 -477 -458 -452 -451 -445 -448 -439 -447 -495 -810 -813 -804 -509 -487 -479 -471 -441 -450 -460 -489 -506 -783 -501 -469 -443 -447 -462 -453 -407 -624 -582 -543 -252 -248 -523 -247 -208 -147 -338 -286 12 69 108 -117 -63 -6 261 -15 -25 -15 -1 -22 -75 -124 107 -128 -85 260 323 138 229 576 618 394 404 433 459 481 492 472 432 398 629 601 560 250 170 358 300 -12 -66 108 13 -327 -376 -381 -374 -146 -163 -161 -163 -146 -136 -168 -240 -542 -573 -595 -612 -605 -624 -391 -429 -460 -480 -463 -433 -405 -401 -404 -402 -638 -615 -590 -585 -595 -607 -595 -607 -605 -596 -610 -636 -409 -434 -462 -471 -477 -476 -460 -428 -444 -439 -408 -637 -611 -617 -638 -422 -432 -425 -426 -449 -486 -497 -466 -457 -451 -426 -410 -406 -418 -435 -461 -449 -422 -396 -611 -585 -585 -592 -622 -616 -612 -635 -417 -401 -386 -607 -580 -593 -587 -597 -600 -600 -606 -629 -613 -582 -528 -218 -146 -302 75 -20 185 406 864 1052 995 1192 1420 1736 2335 2485 3183 3659 3824 4062 4371 4073 4001 4154 3933 3602 3153 2583 1883 922 226 -358 -844 -1333 -1875 -2576 -3444 -4114 -4239 -4517 -4907 -4823 -5125 -4748 -4535 -4609 -4320 -4287 -4370 -3773 -3627 -3027 -2689 -2623 -2020 -1673 -1628 -1368 -1123 -689 -842 -789 -774 -498 -468 -632 -254 -142 -303 73 -109 -58 -45 -59 -120 41 -332 -174 -211 -240 -524 -562 -581 -564 -242 -174 -367 -302 -261 28 59 95 -126 -108 118 92 71 56 62 64 66 46 21 5 23 55 68 87 106 -110 -51 -11 -16 -3 -3 -14 -34 -47 -32 -36 -10 261 282 294 319 370 380 377 378 160 154 160 175 183 164 366 339 317 318 378 177 226 543 543 250 227 203 173 188 216 236 522 544 581 616 614 608 618 626 636 634 390 635 621 616 637 428 458 478 455 458 444 482 796 837 827 835 848 866 874 853 835 842 864 651 697 744 760 1052 1079 1096 1082 1057 1049 1073 1115 1122 1146 949 1023 1352 1384 1399 1403 1400 1153 1169 1206 1227 1259 1556 1553 1567 1613 1426 1479 1500 1507 1510 1518 1527 1799 1824 1831 1837 1861 1911 1680 1699 1710 1741 2055 2103 2131 2118 2098 2116 2165 1982 2017 2043 2326 2342 2352 2396 2192 2214 2216 2233 2273 2291 2564 2596 2616 2598 2602 2582 2295 2278 2295 2574 2582 2606 2599 2596 2595 2571 2282 2232 2218 2278 2607 2594 2269 2207 2414 2393 2386 2374 2332 2045 1996 2174 2082 1724 1902 1855 1532 1430 1602 1250 1171 1345 1302 979 1146 1037 695 872 795 459 631 569 513 222 154 278 -96 73 22 -284 -328 -369 -155 -203 -542 -629 -451 -770 -861 -643 -866 -870 -641 -692 -736 -758 -1038 -1116 -910 -910 -1152 -948 -979 -1285 -1303 -1320 -1350 -1359 -1307 -1283 -1001 -1306 -1355 -1384 -1389 -1362 -1345 -1367 -1393 -1399 -1353 -1339 -1330 -1345 -1398 -1165 -1200 -1230 -1245 -1230 -1200 -1172 -1177 -1158 -1178 -1194 -1216 -1230 -1229 -1204 -1188 -1168 -1171 -1174 -1199 -1204 -1212 -1225 -1233 -1270 -1264 -1226 -1208 -1192 -1191 -1154 -1153 -1408 -1400 -1407 -1399 -1390 -1153 -1179 -1199 -1200 -1199 -1226 -1254 -1250 -1229 -1196 -1193 -1185 -1156 -1390 -1387 -1386 -1407 -1401 -1381 -1366 -1371 -1346 -1334 -1349 -1358 -1363 -1362 -1336 -1017 -1285 -1311 -1315 -1300 -1335 -1359 -1357 -1334 -1310 -1282 -1281 -1016 -1000 -976 -960 -948 -926 -904 -898 -909 -920 -934 -924 -911 -900 -902 -936 -980 -1014 -1007 -970 -922 -1152 -1144 -1149 -904 -1143 -907 -901 -923 -961 -1281 -1009 -999 -963 -919 -1109 -1030 -751 -1057 -1100 -1135 -912 -903 -1129 -1114 -1089 -1062 -1042 -1048 -1101 -1135 -1103 -1045 -1033 -1075 -1090 -1077 -1046 -1046 -1071 -1081 -1060 -757 -716 -692 -716 -755 -755 -757 -728 -700 -706 -709 -692 -664 -644 -877 -658 -689 -711 -716 -690 -674 -671 -656 -887 -886 -882 -889 -844 -502 -472 -496 -500 -430 -631 -583 -554 -526 -523 -244 -224 -161 -378 -320 -272 21 56 119 -72 -40 -28 -37 -33 261 276 271 -28 -98 102 90 117 -67 279 151 531 621 430 414 392 627 412 431 426 412 398 628 573 523 237 198 348 -14 -89 -109 -114 86 22 -301 -365 -178 -253 -573 -616 -620 -609 -573 -563 -583 -620 -421 -489 -509 -806 -816 -790 -499 -495 -781 -867 -671 -660 -855 -812 -492 -479 -441 -425 -430 -422 -386 -392 -440 -463 -473 -506 -784 -792 -817 -833 -838 -822 -826 -820 -843 -864 -846 -833 -830 -840 -807 -802 -807 -792 -800 -799 -815 -807 -818 -861 -644 -645 -890 -645 -889 -845 -771 -500 -501 -504 -497 -786 -511 -509 -488 -470 -468 -472 -434 -453 -483 -463 -450 -461 -486 -503 -778 -502 -490 -492 -478 -449 -421 -640 -604 -552 -206 -285 -91 348 544 491 682 932 1179 1655 1696 2309 2487 2949 3673 3811 4049 4389 4403 4428 4375 4213 3915 3447 2554 2107 1358 421 -86 -549 -765 -1537 -2045 -3163 -3582 -4026 -4295 -4734 -4915 -4957 -4570 -4640 -4316 -4347 -4302 -4430 -4176 -3568 -3202 -2776 -2571 -1969 -1734 -1482 -1241 -1021 -1106 -749 -727 -690 -686 -643 -783 -416 -583 -251 -157 -313 23 40 34 -284 -356 -382 -381 -189 -564 -392 -399 -395 -612 -537 -242 -186 -148 -367 -383 -342 -261 65 108 80 0 -334 -147 -193 -227 -192 -158 -134 -384 -337 1 71 101 126 126 112 68 28 30 124 -43 -35 -86 105 98 -119 -85 -57 -45 -33 -39 -68 -126 -79 -9 304 308 293 281 289 310 265 -83 -95 -40 263 282 303 288 340 141 176 153 383 365 343 342 138 172 193 221 525 567 573 565 576 581 566 585 614 386 410 424 447 457 467 487 487 780 805 821 862 881 890 894 894 892 886 884 883 657 689 698 725 1042 1090 1099 1132 1144 1123 1123 1124 1148 939 990 1317 1366 1344 1306 1292 1296 1320 1362 1153 1214 1243 1273 1573 1594 1593 1603 1631 1420 1468 1501 1506 1508 1810 1829 1890 1909 1674 1665 1669 1700 1741 1748 1731 2052 2127 2173 1938 1957 1951 2165 2144 2164 1980 2029 2319 2323 2318 2322 2309 2316 2328 2345 2402 2185 2177 2380 2342 2327 2316 2047 2309 2388 2415 2399 2384 2335 2337 2365 2338 2345 2342 2328 2037 2028 2045 1982 1924 2123 2092 1763 1679 1885 1864 1530 1481 1425 1646 1558 1213 1402 1357 994 1111 715 656 847 780 471 390 570 539 220 165 340 -21 -120 76 7 -295 -345 -359 -149 -215 -594 -391 -428 -469 -492 -773 -821 -655 -716 -733 -1031 -1111 -906 -932 -967 -996 -1287 -1311 -1322 -1018 -962 -939 -963 -1005 -1299 -1331 -1317 -1344 -1331 -1296 -1286 -1293 -1297 -1315 -1343 -1350 -1353 -1341 -1337 -1343 -1355 -1351 -1317 -1324 -1337 -1389 -1154 -1155 -1156 -1377 -1326 -1008 -975 -962 -988 -1003 -1282 -1304 -1325 -1014 -938 -1147 -1126 -1149 -904 -950 -967 -991 -1013 -966 -952 -978 -994 -1017 -1011 -979 -939 -968 -987 -1003 -983 -995 -1292 -1289 -982 -977 -964 -938 -911 -910 -1148 -1107 -1086 -1099 -1132 -1145 -911 -936 -909 -903 -1141 -1112 -1102 -1093 -1099 -1146 -946 -968 -948 -1151 -1144 -925 -938 -934 -916 -935 -999 -1303 -981 -1143 -1106 -1123 -903 -913 -900 -1133 -1110 -1067 -1077 -1064 -1067 -1087 -1082 -1053 -1040 -748 -739 -744 -768 -1090 -1094 -1103 -1132 -914 -1152 -1094 -757 -732 -756 -1060 -1057 -1025 -749 -706 -683 -692 -691 -674 -675 -695 -676 -670 -658 -671 -699 -734 -1052 -1098 -1103 -1042 -738 -722 -749 -1037 -1036 -757 -738 -749 -733 -701 -889 -870 -854 -826 -817 -817 -821 -815 -818 -833 -870 -876 -858 -844 -835 -824 -830 -825 -837 -835 -784 -779 -510 -507 -491 -481 -465 -438 -422 -597 -540 -212 -153 -373 -344 -344 -341 -309 -282 21 72 95 39 -271 -266 30 11 -303 -310 -306 -321 20 100 -92 263 379 177 187 200 248 514 548 562 553 535 210 200 193 180 186 140 341 282 -50 -121 53 -266 -317 -356 -142 -166 -186 -238 -238 -241 -543 -632 -429 -457 -484 -778 -791 -781 -784 -816 -855 -645 -685 -743 -734 -659 -872 -839 -807 -774 -785 -824 -809 -799 -508 -493 -490 -777 -796 -823 -839 -864 -866 -846 -812 -796 -842 -872 -653 -890 -849 -788 -511 -497 -504 -782 -792 -794 -802 -782 -503 -469 -439 -437 -434 -416 -412 -428 -430 -398 -635 -631 -411 -418 -410 -417 -430 -425 -418 -404 -639 -625 -622 -629 -395 -428 -445 -463 -488 -475 -448 -405 -619 -608 -615 -604 -556 -239 -176 -365 -263 -127 288 222 450 659 1099 1281 1241 1802 2124 2208 2883 3367 3583 4197 4357 4391 4089 3968 3810 3842 3201 2889 1956 1240 827 292 -136 -799 -1281 -1717 -2552 -3292 -3774 -4355 -4285 -4629 -4662 -4299 -4379 -4224 -4006 -4055 -3981 -3804 -3502 -3426 -3099 -2529 -2204 -2160 -1880 -1624 -1392 -970 -1112 -1061 -762 -701 -883 -775 -400 -547 -178 -305 89 -65 -12 274 256 -55 124 45 -301 -154 -232 -249 -256 -208 -153 -349 -314 14 87 -126 -97 -86 -50 260 264 -26 -62 -57 -54 -117 70 25 52 80 109 127 -82 -41 -10 271 287 278 270 283 307 300 -3 -52 -35 -24 257 -30 -78 -85 -45 -13 268 263 -21 -21 -1 288 312 336 353 361 377 130 140 139 150 177 203 204 208 207 211 238 522 538 532 531 249 252 532 549 532 524 572 601 619 610 592 594 632 416 432 435 434 480 506 775 507 783 805 865 673 716 707 697 687 692 707 693 678 692 756 1058 1138 935 934 937 941 969 998 1284 1317 1313 1323 1342 1399 1184 1202 1227 1246 1246 1553 1572 1594 1573 1564 1586 1657 1419 1425 1655 1429 1469 1518 1818 1842 1881 1873 1907 1919 1721 1791 2107 2144 2146 1928 1921 1938 1964 1997 2023 2323 2380 2372 2361 2353 2399 2423 2186 2224 2246 2267 2261 2275 2283 2272 2250 2283 2611 2642 2616 2591 2602 2616 2601 2585 2574 2574 2567 2298 2292 2575 2281 2220 2411 2382 2382 2396 2384 2308 1979 1942 1920 2137 2081 1741 1897 1811 1491 1455 1442 1424 1601 1224 1383 1295 965 904 1118 1059 694 816 458 390 571 251 192 146 361 322 -12 -103 48 -311 -145 -198 -253 -529 -558 -583 -623 -393 -480 -817 -875 -656 -693 -728 -761 -1031 -1049 -1067 -1106 -1132 -1147 -901 -914 -934 -957 -1004 -1310 -1290 -1023 -1023 -1284 -1285 -1316 -1320 -1323 -1313 -1300 -1334 -1372 -1350 -1333 -1331 -1346 -1355 -1335 -1317 -1316 -1297 -1312 -1334 -1319 -1347 -1367 -1296 -1281 -1287 -1016 -1300 -1283 -1284 -1284 -1006 -999 -996 -994 -1000 -1021 -1008 -1006 -996 -968 -962 -983 -1017 -1022 -1016 -1012 -994 -982 -969 -934 -947 -968 -975 -987 -975 -970 -985 -955 -927 -926 -906 -901 -943 -951 -971 -960 -934 -954 -978 -997 -988 -982 -978 -996 -990 -970 -959 -962 -943 -935 -917 -1135 -1138 -910 -898 -1142 -1116 -1114 -1121 -1129 -1108 -1079 -1081 -1098 -1108 -1123 -1139 -1135 -1113 -1108 -1095 -1077 -1082 -1096 -1099 -1093 -1081 -1066 -1031 -726 -723 -735 -715 -691 -675 -664 -658 -675 -706 -714 -685 -686 -693 -708 -721 -706 -663 -889 -885 -641 -656 -666 -665 -666 -681 -695 -696 -704 -706 -702 -670 -680 -706 -738 -736 -680 -649 -882 -869 -662 -729 -766 -751 -719 -690 -664 -657 -673 -674 -679 -654 -873 -661 -670 -699 -724 -675 -659 -890 -875 -888 -657 -686 -692 -700 -663 -672 -654 -886 -852 -854 -844 -862 -816 -487 -434 -385 -389 -637 -608 -562 -533 -196 -162 -374 -358 -326 2 32 48 79 78 100 81 82 48 -262 -316 -303 -310 -273 55 -104 -31 286 321 373 133 150 194 235 246 522 512 512 208 168 368 331 293 -21 -112 61 -266 -299 -350 -197 -551 -621 -397 -450 -485 -481 -471 -483 -505 -773 -809 -854 -659 -694 -713 -712 -718 -766 -1056 -1058 -1051 -1067 -1072 -1075 -1053 -1040 -1038 -1038 -1025 -735 -712 -682 -646 -888 -645 -653 -684 -738 -1042 -1070 -1084 -1076 -1098 -1117 -1123 -1126 -1135 -1126 -1108 -1087 -1058 -1048 -765 -1025 -1044 -1049 -749 -727 -725 -751 -1033 -1049 -1077 -1087 -1051 -767 -1025 -1055 -1072 -1035 -731 -725 -739 -752 -763 -742 -723 -736 -740 -732 -705 -696 -679 -679 -677 -715 -1035 -1060 -1062 -1052 -1063 -1075 -1047 -740 -687 -854 -502 -403 -542 -145 48 262 228 436 685 1143 1404 1453 2074 2234 2704 3432 3546 3945 3950 3900 3854 3498 3281 3191 2459 2133 1163 449 5 -791 -1010 -1463 -1992 -2735 -3551 -4369 -4697 -4949 -4844 -5221 -5174 -4990 -4487 -4612 -4646 -4618 -4433 -4131 -3540 -3435 -2777 -2657 -2045 -1726 -1443 -1227 -1305 -950 -1121 -1082 -1055 -1063 -766 -675 -778 -637 -250 -170 -376 -351 -320 -331 -365 -193 -515 -589 -633 -429 -482 -508 -498 -476 -440 -634 -578 -531 -248 -220 -184 -168 -168 -132 -366 -356 -146 -192 -219 -217 -213 -204 -186 -177 -167 -158 -131 -345 -313 -273 6 -262 -269 -282 -296 -269 22 40 46 35 24 63 116 -124 112 96 -123 -74 -40 -36 -58 -78 -82 -57 -18 275 303 366 354 333 295 288 310 332 350 336 370 150 192 220 218 186 162 142 216 550 597 590 552 525 526 523 523 547 564 603 638 402 432 477 507 797 794 818 833 823 829 835 880 889 649 651 686 720 737 738 737 728 748 1033 1061 1069 1068 1125 932 972 988 1021 1023 1309 1308 1344 1405 1197 1215 1230 1235 1233 1247 1266 1559 1574 1610 1642 1662 1462 1484 1519 1795 1819 1817 1840 1887 1681 1710 1747 1789 2061 2050 2071 2107 2147 1941 1991 2001 2006 2010 2007 2021 2025 2023 2314 2377 2423 2195 2211 2259 2269 2259 2256 2283 2281 2254 2270 2302 2569 2596 2641 2637 2606 2594 2626 2632 2630 2565 2297 2560 2578 2568 2288 2256 2208 2416 2385 2354 2344 2316 2006 1928 2095 2062 1769 1738 1915 1846 1502 1432 1611 1231 1153 1336 1016 979 907 1080 756 669 866 798 429 583 519 186 138 328 -14 -106 31 -311 -362 -383 -203 -551 -635 -429 -485 -775 -845 -891 -716 -757 -1041 -1080 -1102 -1124 -1148 -1146 -1148 -904 -907 -945 -977 -1300 -1320 -1298 -1016 -1013 -1015 -1293 -1340 -1363 -1373 -1378 -1393 -1400 -1407 -1163 -1176 -1161 -1170 -1166 -1398 -1406 -1397 -1393 -1161 -1207 -1223 -1206 -1210 -1197 -1180 -1180 -1180 -1175 -1172 -1201 -1222 -1207 -1155 -1372 -1366 -1366 -1361 -1362 -1366 -1379 -1381 -1391 -1370 -1367 -1336 -1310 -1306 -1323 -1330 -1321 -1318 -1322 -1324 -1330 -1327 -1333 -1351 -1327 -1298 -1285 -1002 -943 -914 -909 -937 -958 -959 -952 -955 -945 -918 -904 -1141 -1147 -898 -1150 -910 -924 -935 -944 -949 -925 -904 -906 -1150 -1139 -1131 -1131 -1140 -923 -946 -936 -1152 -1103 -1067 -1069 -1074 -1060 -1031 -761 -1050 -1057 -1068 -1056 -1026 -1032 -762 -761 -765 -1030 -765 -1030 -765 -760 -1038 -1068 -1079 -1027 -710 -720 -691 -725 -722 -719 -685 -673 -653 -709 -699 -701 -679 -653 -655 -666 -671 -675 -676 -661 -884 -654 -661 -660 -661 -670 -643 -886 -885 -866 -893 -646 -885 -650 -888 -895 -650 -664 -884 -863 -827 -862 -885 -873 -847 -843 -836 -838 -843 -845 -847 -815 -788 -789 -821 -830 -824 -807 -780 -771 -509 -776 -781 -512 -498 -475 -432 -397 -603 -576 -545 -255 -216 -169 -375 -335 -304 -281 25 98 -86 -25 256 268 282 291 290 271 -29 -112 118 -122 -88 -38 280 337 163 223 538 571 578 615 386 398 389 623 571 522 233 199 173 148 374 341 271 -74 97 7 -315 -366 -383 -178 -219 -526 -545 -552 -561 -555 -548 -574 -632 -429 -485 -512 -775 -797 -817 -859 -885 -654 -660 -699 -700 -683 -666 -650 -648 -656 -641 -894 -860 -780 -476 -464 -456 -491 -771 -783 -788 -813 -819 -843 -880 -876 -869 -872 -857 -805 -788 -813 -824 -833 -822 -814 -821 -796 -788 -781 -772 -508 -783 -808 -846 -852 -826 -844 -794 -509 -510 -779 -801 -799 -818 -810 -501 -462 -449 -444 -457 -444 -452 -486 -495 -489 -504 -485 -445 -437 -438 -434 -431 -415 -402 -419 -608 -242 -375 -288 99 -10 174 620 845 1093 1341 1577 1874 1950 2272 2910 3360 3571 4170 4051 4071 4024 4199 3814 3577 3453 2928 2015 1276 787 115 -638 -1076 -1586 -1965 -2759 -3487 -4221 -4282 -4495 -4956 -4834 -4771 -4597 -4653 -4259 -4450 -4035 -3806 -3496 -3417 -2803 -2682 -2028 -1683 -1634 -1368 -1113 -663 -797 -498 -486 -482 -471 -398 -525 -365 19 107 -67 -27 -6 -30 -48 -89 86 -280 -344 -133 -137 -148 -142 -143 -140 -378 -338 -291 8 81 -124 -94 -72 -27 -17 -11 -53 120 80 71 57 110 110 97 106 124 121 -118 -87 -51 257 -5 259 259 283 318 329 347 323 304 295 317 315 311 372 163 196 190 148 150 196 193 173 218 234 195 171 138 151 212 238 513 545 530 549 565 576 580 566 622 405 410 386 630 637 407 404 406 394 628 619 638 399 386 615 394 469 503 780 790 771 501 505 496 771 808 819 826 855 872 865 876 887 654 657 667 676 677 674 673 696 750 1074 1111 1107 1118 1141 901 909 939 962 985 1006 1281 1298 1320 1345 1339 1327 1354 1209 1267 1277 1552 1593 1633 1652 1417 1458 1506 1807 1823 1841 1864 1850 1859 1884 1687 1708 1732 2048 2121 1920 1951 1961 1968 1944 2174 1944 1971 1992 2032 2359 2409 2190 2217 2198 2428 2385 2403 2208 2257 2288 2563 2582 2586 2562 2267 2264 2268 2274 2302 2603 2613 2612 2586 2283 2273 2288 2269 2213 2409 2359 2326 2309 2041 1991 2165 2137 2102 2064 1786 1736 1913 1804 1438 1629 1613 1582 1253 1152 1018 926 1121 1070 722 879 831 509 401 527 235 201 165 358 278 -64 -111 83 -265 -360 -167 -193 -240 -550 -605 -403 -463 -769 -794 -845 -660 -686 -689 -741 -1025 -1068 -1096 -1108 -1135 -1139 -1133 -1132 -1124 -1139 -929 -942 -968 -979 -972 -966 -983 -1016 -1320 -1391 -1404 -1382 -1367 -1385 -1389 -1371 -1399 -1189 -1215 -1179 -1192 -1230 -1268 -1566 -1575 -1257 -1219 -1226 -1213 -1210 -1199 -1213 -1224 -1220 -1233 -1260 -1274 -1539 -1260 -1208 -1174 -1174 -1173 -1406 -1394 -1406 -1182 -1178 -1175 -1181 -1189 -1159 -1373 -1353 -1359 -1387 -1402 -1181 -1155 -1385 -1360 -1385 -1394 -1341 -1299 -1293 -1315 -1336 -1336 -1292 -985 -1009 -1005 -956 -920 -1121 -1112 -899 -906 -1135 -1111 -1130 -1133 -1135 -905 -1151 -1122 -1074 -1063 -1058 -1066 -1067 -1083 -1104 -1107 -1145 -1136 -1113 -1053 -1047 -1110 -1116 -1082 -1070 -1068 -1064 -1067 -1063 -1075 -1084 -1075 -1040 -1061 -1093 -1112 -1114 -1107 -1085 -1090 -1038 -766 -1038 -1075 -1066 -1058 -1061 -1096 -1114 -1123 -1114 -1091 -1055 -1037 -1026 -1075 -1094 -1044 -692 -895 -840 -831 -856 -653 -672 -704 -692 -654 -895 -657 -674 -704 -671 -837 -826 -855 -889 -659 -719 -1026 -1042 -765 -745 -717 -699 -728 -744 -719 -694 -703 -743 -747 -757 -753 -740 -724 -691 -682 -687 -717 -708 -705 -687 -643 -856 -832 -810 -781 -508 -472 -437 -408 -598 -553 -249 -199 -200 -173 -381 -349 -356 -349 -343 -322 -318 -355 -130 -148 -379 -359 -295 68 -60 304 135 171 173 166 208 224 534 597 592 512 184 141 367 317 -17 -50 -68 126 16 -331 -203 -538 -569 -585 -609 -619 -421 -774 -833 -830 -780 -772 -795 -843 -876 -665 -709 -762 -765 -1031 -1047 -1036 -730 -719 -712 -732 -767 -1060 -1044 -1034 -747 -659 -862 -852 -869 -882 -891 -875 -884 -689 -733 -761 -1039 -1068 -1113 -1131 -1118 -1082 -1065 -1059 -1047 -1039 -1036 -757 -708 -700 -721 -681 -879 -859 -895 -669 -679 -683 -666 -651 -653 -707 -1040 -1048 -706 -895 -878 -887 -896 -671 -687 -683 -671 -657 -698 -748 -765 -1031 -729 -647 -886 -683 -732 -720 -680 -677 -697 -719 -746 -1045 -1061 -705 -847 -782 -439 -547 -340 112 316 206 629 849 1090 1338 1644 1717 2377 2820 3055 3544 4132 3970 4208 4178 3829 3952 3709 3054 2526 2120 1404 427 75 -397 -1086 -1601 -2339 -3151 -3563 -4224 -4280 -4495 -4940 -4749 -4910 -4706 -4323 -4320 -4261 -4081 -4104 -3515 -3445 -3120 -2479 -2389 -2097 -1522 -1574 -1172 -998 -1098 -1029 -699 -654 -860 -833 -500 -615 -221 -374 -318 -262 14 -260 -298 -354 -139 -198 -242 -555 -569 -602 -632 -626 -599 -583 -549 -228 -351 44 117 126 117 87 54 17 -258 -273 -276 -264 32 56 40 -279 -348 -361 -291 30 81 98 -118 -100 -109 -77 -48 -55 -77 -97 -119 -127 -85 -57 -65 -81 -79 -57 -61 -77 -55 -41 -51 -63 -64 -49 268 309 307 298 302 336 137 171 155 136 155 162 382 376 162 198 518 573 530 521 573 612 608 550 533 533 556 569 621 404 409 397 389 435 433 448 455 429 435 457 447 428 468 488 773 817 807 797 787 780 794 823 889 712 1050 1080 1038 759 760 1035 1069 1129 916 932 916 922 964 1023 1322 1327 1317 1287 1284 1298 1362 1166 1160 1387 1368 1390 1197 1256 1592 1660 1444 1446 1418 1414 1453 1488 1513 1814 1877 1680 1716 1727 1707 1695 1720 1733 1736 1745 1785 2075 2149 1933 1955 2014 2045 2042 2023 2308 2332 2344 2323 2314 2316 2359 2415 2204 2216 2192 2424 2357 2333 2346 2380 2398 2412 2398 2393 2383 2355 2364 2375 2339 2032 2040 2045 2034 1988 1976 1942 2150 2072 1763 1745 1698 1869 1527 1474 1412 1585 1241 1171 1357 1309 1285 997 948 898 1033 649 827 486 636 569 554 539 225 382 268 -33 -58 -104 85 -264 -367 -224 -563 -622 -637 -407 -438 -500 -811 -825 -820 -838 -878 -662 -716 -761 -766 -737 -717 -757 -1106 -1088 -1112 -1126 -1105 -1088 -1075 -1095 -910 -923 -1126 -1120 -1128 -1133 -1146 -902 -929 -944 -904 -900 -927 -931 -941 -960 -956 -931 -940 -968 -973 -946 -965 -1004 -1291 -1297 -1005 -1000 -999 -1005 -1024 -1024 -979 -945 -945 -975 -998 -987 -926 -917 -957 -998 -980 -956 -929 -897 -1122 -1145 -1150 -898 -1133 -1130 -1151 -927 -946 -938 -911 -1142 -1142 -908 -1148 -1141 -1108 -1081 -1092 -1054 -1048 -1055 -1043 -1036 -1031 -766 -739 -742 -719 -692 -678 -684 -702 -741 -748 -738 -673 -885 -889 -892 -644 -657 -705 -730 -711 -688 -692 -717 -693 -886 -848 -842 -883 -689 -712 -695 -694 -714 -717 -695 -672 -678 -650 -847 -837 -840 -868 -683 -721 -668 -867 -826 -817 -827 -860 -869 -649 -884 -840 -812 -822 -867 -681 -681 -874 -840 -856 -875 -864 -866 -863 -841 -841 -849 -891 -841 -769 -492 -489 -779 -781 -820 -810 -796 -791 -510 -779 -783 -779 -502 -793 -789 -500 -491 -499 -505 -772 -780 -780 -512 -511 -495 -481 -482 -472 -455 