4117 3738 3548 3225 2703 2026 1220 409 0 -434 -1045 -1199 -1787 -2858 -3489 -4358 -4666 -4581 -4868 -4892 -4556 -4628 -4419 -4050 -4385 -4388 -3987 -3931 -3283 -3142 -2484 -2387 -2070 -1530 -1571 -1381 -965 -1091 -761 -757 -759 -733 -677 -810 -406 -219 -299 57 114 -88 -56 -52 -83 108 10 -313 -354 -362 -160 -213 -238 -216 -165 -354 -294 31 79 94 -109 -75 -44 -16 -26 -41 -67 -94 110 86 79 68 63 52 25 -272 4 -126 260 324 342 333 303 294 292 292 301 313 329 357 352 326 309 325 350 368 359 342 332 336 375 145 184 205 216 207 203 193 185 214 525 543 541 512 518 544 572 578 565 566 567 569 603 395 417 427 413 403 401 436 476 774 804 810 828 827 843 854 873 885 645 675 684 695 704 717 702 690 677 723 1074 1099 1070 1047 1074 1104 896 912 946 969 975 972 994 1015 1286 1330 1322 1354 1401 1196 1215 1201 1204 1227 1263 1539 1591 1638 1424 1433 1451 1455 1477 1501 1520 1817 1850 1899 1685 1664 1687 1734 1757 1734 1753 2056 2114 2175 1978 1968 1954 1973 2012 2306 2320 2319 2331 2382 2184 2215 2196 2176 2186 2188 2200 2211 2224 2228 2232 2236 2266 2576 2623 2625 2589 2572 2582 2580 2585 2582 2578 2580 2571 2302 2264 2221 2204 2193 2406 2332 2010 1966 1945 2139 1781 1724 1669 1878 1861 1812 1474 1611 1258 1171 1349 996 899 1098 1053 735 655 793 441 610 238 132 320 283 -28 -80 -111 -118 76 -285 -363 -172 -230 -535 -567 -612 -399 -445 -480 -498 -783 -829 -891 -667 -665 -689 -748 -1055 -1119 -907 -914 -917 -927 -953 -976 -1001 -1010 -1014 -1014 -1011 -1302 -1321 -1333 -1329 -1320 -1324 -1334 -1354 -1386 -1394 -1354 -1324 -1334 -1316 -1311 -1332 -1371 -1405 -1196 -1179 -1374 -1328 -1001 -970 -972 -987 -993 -1005 -1293 -1305 -1308 -1314 -1297 -1010 -975 -946 -941 -949 -963 -970 -979 -967 -958 -974 -1001 -1022 -1287 -1307 -1307 -1022 -984 -938 -925 -933 -913 -920 -915 -929 -931 -908 -898 -1141 -1132 -1128 -1116 -1123 -1131 -903 -914 -903 -908 -913 -900 -1146 -899 -1144 -1132 -1102 -1068 -1042 -1036 -1059 -1105 -1111 -1075 -1031 -735 -742 -1026 -1027 -749 -749 -755 -745 -710 -716 -1029 -1080 -1080 -753 -740 -702 -675 -679 -688 -708 -738 -1028 -1033 -759 -697 -664 -894 -867 -874 -647 -666 -682 -675 -658 -894 -888 -887 -870 -863 -874 -866 -891 -888 -878 -869 -874 -895 -887 -877 -880 -863 -841 -846 -879 -893 -892 -857 -841 -845 -840 -789 -785 -781 -798 -804 -828 -838 -813 -811 -806 -816 -825 -795 -502 -511 -805 -830 -813 -806 -787 -784 -508 -509 -786 -802 -836 -825 -812 -834 -852 -846 -795 -778 -786 -808 -808 -794 -782 -778 -771 -775 -789 -830 -832 -818 -803 -769 -507 -504 -506 -482 -500 -511 -784 -808 -509 -460 -461 -453 -431 -626 -575 -563 -557 -538 -235 -192 -381 -318 -315 -311 -274 55 115 -88 -31 -14 -11 -5 276 290 -5 -88 98 100 -80 -4 337 146 224 550 388 453 469 492 505 774 497 507 770 483 441 629 600 584 513 224 155 309 -40 126 59 20 -313 -139 -178 -160 -139 -157 -205 -514 -553 -581 -606 -640 -400 -411 -428 -448 -508 -803 -832 -840 -851 -860 -854 -841 -821 -801 -803 -810 -819 -811 -795 -509 -485 -469 -435 -422 -471 -511 -784 -780 -770 -773 -789 -785 -801 -816 -820 -809 -819 -825 -810 -785 -770 -506 -488 -473 -500 -773 -512 -783 -818 -855 -856 -828 -828 -830 -807 -504 -472 -469 -452 -464 -496 -783 -783 -775 -781 -779 -783 -803 -822 -814 -778 -486 -462 -472 -451 -465 -472 -490 -775 -800 -778 -499 -416 -605 -549 -231 -363 69 -38 143 567 505 749 996 1249 1508 2067 2423 2559 2993 3666 3769 4166 4172 4124 3776 3903 3705 3333 2491 1788 983 208 -514 -1027 -1189 -1908 -2282 -3381 -4215 -4725 -4983 -4852 -5138 -5178 -4810 -4588 -4306 -4432 -4423 -4060 -3816 -3487 -3381 -2719 -2296 -2174 -1831 -1270 -991 -762 -863 -499 -473 -781 -841 -842 -784 -414 -540 -166 -305 45 122 -50 258 -24 -89 89 5 -329 -383 -164 -186 -202 -211 -226 -167 -306 29 76 120 -94 -66 -48 -46 -36 -45 -54 -35 -43 -74 -113 -128 -125 127 -113 -71 -31 -25 -24 257 283 300 315 321 341 356 342 322 316 324 339 359 353 356 367 352 320 314 327 366 166 205 230 234 201 178 174 176 183 205 227 234 219 220 231 245 242 518 571 615 624 626 627 631 384 622 618 403 435 460 474 474 487 484 506 794 819 830 854 849 844 832 831 859 891 659 669 680 676 890 843 850 681 766 1136 920 918 1133 1107 900 943 970 984 1284 1293 1303 1311 1315 1339 1381 1164 1157 1187 1220 1274 1583 1575 1556 1575 1597 1603 1654 1447 1486 1794 1808 1835 1842 1839 1848 1870 1664 1734 2060 2067 2077 2094 2102 2094 2094 2174 1977 2020 2025 2024 2316 2376 2409 2392 2405 2422 2195 2222 2221 2231 2222 2224 2226 2234 2262 2281 2286 2273 2276 2257 2235 2256 2293 2582 2584 2568 2282 2236 2203 2188 2193 2197 2408 2371 2326 2025 2008 1987 1934 2114 1780 1712 1882 1526 1446 1632 1581 1546 1234 1165 1337 1001 1150 1073 1030 719 883 807 472 401 573 248 175 372 323 261 -69 97 22 -271 -350 -158 -225 -540 -624 -470 -800 -818 -815 -840 -873 -671 -710 -732 -743 -747 -1042 -1099 -902 -913 -908 -1151 -916 -940 -962 -991 -1293 -1296 -1313 -1334 -1356 -1360 -1358 -1373 -1389 -1397 -1390 -1153 -1156 -1404 -1392 -1389 -1389 -1398 -1386 -1376 -1362 -1356 -1356 -1380 -1391 -1391 -1373 -1162 -1156 -1390 -1369 -1397 -1161 -1403 -1398 -1403 -1181 -1210 -1163 -1330 -1003 -998 -1018 -1302 -1329 -1357 -1353 -1345 -1357 -1349 -1310 -1023 -998 -994 -1021 -1301 -1332 -1331 -1345 -1361 -1391 -1377 -1318 -991 -957 -992 -1297 -1314 -1312 -1288 -1005 -986 -976 -959 -950 -923 -924 -924 -949 -975 -983 -968 -948 -938 -931 -946 -944 -936 -931 -920 -926 -932 -927 -902 -1140 -1134 -1141 -1151 -912 -920 -923 -908 -1140 -1123 -1122 -1137 -1134 -898 -1139 -1118 -1093 -1091 -1096 -1102 -1088 -1067 -1049 -1048 -1055 -1039 -1034 -768 -1032 -1029 -758 -1030 -745 -727 -735 -1030 -1039 -1047 -1061 -1054 -1036 -731 -711 -697 -709 -757 -763 -698 -648 -645 -696 -704 -705 -724 -714 -716 -704 -740 -751 -707 -654 -880 -644 -878 -887 -641 -645 -660 -675 -685 -705 -725 -691 -694 -679 -650 -854 -819 -833 -836 -840 -841 -893 -862 -857 -832 -831 -800 -811 -781 -799 -795 -791 -778 -781 -800 -800 -805 -811 -823 -816 -807 -794 -796 -798 -800 -794 -801 -800 -786 -776 -501 -448 -424 -414 -386 -595 -546 -518 -220 -173 -382 -365 -362 -336 -269 76 -63 271 285 267 -1 -15 -77 -116 -124 -119 -105 -66 259 368 216 545 619 443 475 488 500 800 802 807 833 817 504 462 423 615 531 210 181 134 320 -51 80 -260 -323 -357 -142 -197 -221 -523 -551 -578 -572 -557 -562 -596 -633 -437 -511 -834 -855 -855 -836 -829 -854 -877 -888 -890 -879 -859 -824 -830 -841 -844 -831 -816 -807 -795 -785 -498 -511 -780 -822 -858 -867 -877 -667 -700 -730 -719 -704 -683 -677 -666 -864 -825 -816 -815 -828 -819 -816 -813 -831 -835 -832 -828 -866 -651 -654 -643 -642 -886 -852 -820 -804 -804 -840 -845 -823 -801 -801 -805 -804 -814 -795 -509 -465 -461 -496 -796 -801 -790 -786 -780 -506 -495 -483 -453 -392 -574 -247 -178 -324 104 348 611 825 767 983 1190 1471 2052 2409 2830 3053 3528 3822 4176 4155 4105 3749 3853 3300 3128 2266 1802 767 263 -418 -959 -1430 -1940 -2877 -3496 -4278 -4742 -5034 -5459 -5294 -5285 -5067 -4806 -4551 -4486 -4724 -4311 -3983 -3564 -3453 -3088 -2504 -2419 -1782 -1428 -1366 -1109 -670 -830 -819 -842 -882 -648 -860 -790 -427 -518 -331 57 -113 -75 -93 103 37 -281 -356 -178 -239 -550 -557 -553 -529 -253 -252 -233 -201 -143 -329 -272 19 39 75 69 20 -282 -346 -372 -360 -333 -283 -264 12 26 22 38 50 64 95 -125 -107 -108 -87 -57 -37 -36 -45 -37 -55 -86 -86 -76 -56 -39 -24 264 258 287 323 355 331 289 300 327 350 366 129 383 349 352 138 135 157 173 185 193 204 229 255 245 253 240 520 564 579 608 624 629 621 602 613 635 409 435 438 471 478 508 787 800 807 781 810 828 847 881 893 675 687 691 735 752 767 1052 1061 1089 1102 1121 910 919 904 899 922 966 1022 1296 1310 1331 1361 1377 1383 1153 1175 1208 1235 1229 1246 1253 1556 1610 1646 1422 1460 1477 1476 1469 1458 1501 1817 1893 1695 1734 1759 2055 2088 2121 2143 2135 2103 2118 2110 2143 1994 2329 2388 2401 2387 2364 2344 2379 2428 2196 2215 2223 2229 2205 2183 2204 2240 2286 2291 2262 2257 2269 2289 2297 2297 2282 2254 2239 2214 2199 2183 2194 2192 2426 2408 2399 2397 2349 2012 1933 2122 2082 1782 1720 1903 1846 1531 1456 1643 1574 1541 1246 1174 1322 976 900 1115 1055 703 853 771 429 589 252 201 143 321 257 -76 123 46 -307 -147 -191 -222 -249 -572 -418 -491 -798 -787 -808 -878 -693 -747 -1031 -1042 -1077 -1091 -1093 -1119 -1142 -920 -953 -978 -993 -974 -984 -996 -1295 -1325 -1338 -1360 -1370 -1405 -1195 -1201 -1158 -1367 -1335 -1346 -1404 -1180 -1184 -1191 -1187 -1186 -1165 -1386 -1361 -1369 -1396 -1388 -1389 -1399 -1167 -1194 -1221 -1207 -1402 -1371 -1155 -1192 -1209 -1234 -1257 -1249 -1203 -1402 -1390 -1397 -1397 -1389 -1384 -1389 -1385 -1381 -1373 -1363 -1345 -1312 -1321 -1337 -1352 -1343 -1331 -1340 -1350 -1368 -1368 -1340 -1308 -1314 -1326 -1339 -1350 -1380 -1158 -1169 -1397 -1337 -1011 -954 -934 -950 -992 -1024 -1007 -991 -973 -958 -922 -916 -929 -957 -989 -980 -960 -937 -912 -1143 -1134 -1133 -908 -946 -968 -957 -917 -1139 -1152 -907 -903 -1149 -1143 -1144 -908 -1150 -1118 -1112 -1111 -1127 -1151 -906 -926 -935 -921 -1108 -1080 -1121 -1152 -936 -897 -1128 -1094 -1080 -1064 -1085 -1106 -1096 -1103 -1068 -1060 -1063 -1062 -1051 -1034 -1041 -1033 -1028 -1055 -1041 -763 -1043 -1045 -1061 -1056 -1069 -1072 -1057 -1043 -756 -1046 -1051 -1054 -1058 -766 -1031 -1043 -1039 -1032 -749 -750 -745 -732 -740 -701 -698 -717 -683 -674 -655 -677 -691 -687 -704 -677 -682 -661 -672 -701 -739 -684 -703 -727 -729 -756 -757 -726 -694 -649 -668 -659 -874 -876 -870 -656 -676 -666 -688 -668 -662 -885 -850 -851 -848 -822 -836 -832 -802 -822 -809 -794 -490 -432 -422 -640 -583 -590 -532 -221 -184 -152 -150 -352 -335 -288 17 86 -88 -36 -29 -31 -94 119 91 90 87 -90 -27 282 147 542 396 469 773 810 831 832 828 843 857 844 803 499 439 387 578 237 139 291 -37 -103 74 7 -313 -374 -185 -249 -578 -630 -391 -408 -397 -395 -393 -631 -408 -461 -489 -497 -772 -782 -807 -873 -654 -650 -672 -674 -644 -884 -879 -862 -865 -859 -824 -794 -509 -470 -440 -451 -478 -508 -827 -859 -850 -840 -828 -838 -832 -804 -791 -799 -509 -492 -496 -504 -482 -479 -478 -472 -471 -469 -475 -503 -779 -777 -503 -465 -438 -417 -424 -453 -447 -426 -421 -424 -396 -626 -578 -573 -580 -604 -632 -628 -613 -609 -401 -438 -437 -430 -416 -422 -444 -448 -457 -455 -421 -626 -617 -618 -535 -365 101 331 542 459 888 1109 1346 1539 1529 2081 2194 2943 3208 3712 4074 4432 4362 3997 4136 3733 3469 3057 2469 1737 917 373 -519 -736 -1208 -1756 -2465 -3600 -4391 -4886 -5196 -5092 -5436 -5427 -5243 -4941 -4736 -4678 -4622 -4470 -4209 -3573 -3419 -2720 -2296 -2158 -1814 -1279 -1334 -1147 -740 -659 -874 -835 -813 -505 -436 -633 -555 -192 -319 25 93 -123 -100 -113 91 13 -315 -356 -380 -130 -152 -207 -521 -247 -170 -328 -281 -262 27 68 -126 -49 257 266 257 -19 -81 104 80 57 27 -264 -289 -296 -281 13 64 117 -101 -91 -81 -62 -29 -34 -38 -70 -75 -68 -36 -21 -54 -76 -115 -73 -8 265 317 343 342 308 295 301 319 339 321 332 354 372 383 130 160 376 320 296 327 146 182 194 157 148 167 195 239 219 520 535 555 570 586 627 617 406 440 449 497 768 771 776 774 820 829 871 669 680 673 704 739 1043 1091 1136 924 903 1118 1088 1098 1136 952 1019 1311 1292 1292 1283 1306 1354 1359 1158 1175 1194 1234 1248 1545 1267 1269 1565 1581 1637 1408 1432 1460 1449 1477 1504 1490 1517 1807 1848 1868 1864 1674 1711 1755 1785 2049 2089 2098 2158 1982 2003 2003 1999 2037 2322 2345 2379 2363 2378 2359 2333 2370 2182 2260 2281 2264 2264 2234 2222 2266 2577 2606 2601 2608 2623 2635 2630 2617 2610 2571 2573 2582 2573 2572 2567 2270 2225 2180 2422 2416 2392 2389 2376 2344 2037 1996 1946 2128 2068 1774 1726 1894 1823 1500 1424 1594 1554 1230 1158 1335 1000 915 1075 764 711 666 856 768 419 602 549 232 177 362 277 -49 -106 100 57 -281 -363 -212 -527 -526 -561 -611 -412 -453 -491 -772 -798 -845 -879 -695 -741 -1036 -1071 -1093 -1125 -1120 -1081 -1052 -1042 -1064 -1122 -933 -956 -927 -899 -908 -914 -935 -932 -913 -1145 -1139 -1150 -910 -939 -981 -987 -1288 -1294 -1309 -1310 -1022 -1007 -1013 -1012 -1021 -1024 -1002 -974 -963 -978 -995 -977 -974 -966 -971 -978 -1291 -1318 -1284 -974 -965 -983 -964 -943 -951 -967 -984 -984 -1011 -1293 -1304 -1290 -1303 -1322 -1310 -1005 -952 -1148 -1125 -1150 -924 -932 -926 -908 -912 -925 -935 -927 -900 -1137 -1146 -906 -903 -898 -1139 -1143 -1146 -1129 -1110 -1082 -1077 -1104 -1108 -1110 -1112 -1110 -1114 -1113 -1078 -1039 -1037 -1035 -1028 -768 -1032 -1040 -1043 -1026 -742 -741 -726 -745 -1026 -742 -708 -715 -705 -703 -709 -715 -726 -728 -724 -694 -697 -692 -692 -669 -663 -681 -716 -744 -687 -653 -655 -655 -647 -859 -885 -884 -861 -859 -843 -865 -861 -808 -840 -844 -828 -818 -793 -869 -652 -872 -826 -803 -788 -770 -785 -806 -808 -834 -851 -839 -802 -817 -823 -502 -428 -401 -430 -437 -448 -432 -496 -498 -484 -496 -487 -471 -456 -473 -483 -480 -493 -483 -475 -465 -471 -450 -439 -447 -465 -502 -771 -450 -403 -613 -638 -437 -467 -475 -424 -636 -638 -394 -592 -562 -549 -251 -203 -178 -153 -132 -370 -326 -301 -269 22 58 74 99 -83 -15 268 267 273 280 -3 -47 -111 104 -113 -76 -42 292 374 239 604 442 788 822 802 783 799 817 826 840 842 818 814 788 481 425 595 255 141 319 -34 -68 -113 82 41 -280 -314 -329 -343 -129 -161 -163 -222 -524 -238 -521 -574 -630 -404 -426 -467 -496 -498 -499 -490 -465 -450 -449 -465 -499 -787 -481 -400 -632 -616 -613 -627 -395 -418 -387 -611 -608 -395 -452 -479 -474 -491 -481 -467 -437 -389 -596 -605 -635 -412 -409 -633 -602 -586 -613 -415 -474 -485 -447 -434 -446 -460 -475 -487 -483 -459 -436 -444 -466 -453 -433 -427 -403 -639 -609 -601 -594 -620 -392 -417 -434 -424 -397 -632 -634 -392 -633 -611 -575 -539 -539 -570 -553 -203 -330 65 -33 159 628 817 744 911 1341 1545 1802 1939 2649 2808 3452 3868 4213 4359 4403 4391 4049 4173 3890 3200 2840 2120 1360 628 44 -420 -1107 -1559 -2010 -3115 -3873 -4091 -4669 -4593 -4886 -4549 -4666 -4245 -4413 -4429 -4425 -4026 -3819 -3486 -3387 -2785 -2667 -2331 -1789 -1488 -1550 -1376 -989 -1102 -1030 -714 -648 -863 -775 -445 -565 -186 -316 96 261 329 347 346 288 -55 80 -287 -366 -198 -523 -249 -206 -149 -340 -301 -266 26 41 72 85 -125 -70 -25 -16 -3 -16 -48 -100 -120 -121 -119 109 102 107 118 -57 -5 257 285 292 285 288 339 362 368 352 344 360 376 355 315 311 130 194 199 185 147 164 206 246 542 537 553 565 559 549 557 598 619 393 424 434 454 428 406 466 822 856 868 797 455 397 422 462 506 777 815 853 864 850 843 895 895 874 847 852 877 887 684 716 736 1025 1074 898 903 1142 910 1133 1122 1130 1149 934 940 920 924 916 980 1315 1368 1161 1380 1386 1361 1377 1374 1395 1211 1245 1557 1601 1622 1417 1432 1658 1645 1630 1662 1433 1448 1513 1490 1515 1799 1854 1673 1897 1896 1665 1704 1712 1704 1774 2085 2128 2165 2174 1977 2042 2375 2376 2346 2383 2411 2419 2415 2397 2391 2396 2408 2189 2220 2243 2266 2286 2296 2274 2238 2245 2248 2224 2203 2249 2576 2597 2295 2275 2277 2290 2297 2267 2207 2177 2422 2180 2415 2358 2310 2027 2008 1996 1936 2145 2101 2081 1758 1676 1860 1817 1510 1471 1422 1601 1244 1390 1305 977 1109 1029 734 680 834 465 633 577 240 180 204 173 330 -21 -104 65 -281 -334 -383 -169 -236 -532 -559 -585 -387 -442 -500 -853 -660 -687 -710 -729 -1047 -1097 -1132 -913 -925 -943 -984 -1007 -991 -990 -1006 -999 -1009 -1286 -1285 -1010 -991 -997 -1304 -1338 -1354 -1351 -1357 -1335 -1309 -1319 -1342 -1333 -1329 -1347 -1353 -1344 -1363 -1384 -1404 -1191 -1188 -1161 -1400 -1378 -1153 -1407 -1399 -1388 -1406 -1158 -1377 -1310 -1340 -1359 -1322 -1324 -1330 -1315 -1292 -1283 -958 -971 -1008 -1008 -1300 -1024 -1004 -1012 -1283 -1024 -990 -977 -974 -1014 -1289 -1305 -1296 -972 -933 -924 -937 -932 -931 -912 -925 -917 -1124 -1092 -1114 -1152 -915 -919 -915 -1142 -1102 -1083 -1079 -1094 -1094 -1109 -1107 -1111 -1109 -1111 -1103 -1084 -1063 -1044 -1049 -1068 -1055 -1025 -764 -1042 -1033 -754 -1043 -1075 -1062 -1052 -1028 -756 -743 -1034 -1033 -724 -683 -653 -711 -732 -723 -669 -879 -895 -663 -657 -659 -887 -875 -895 -891 -891 -886 -896 -661 -676 -650 -880 -882 -870 -886 -868 -872 -865 -831 -818 -838 -879 -864 -834 -858 -670 -732 -715 -892 -852 -799 -785 -812 -857 -879 -656 -703 -706 -674 -655 -672 -675 -876 -834 -811 -787 -839 -872 -846 -800 -494 -488 -800 -870 -653 -675 -677 -896 -849 -831 -844 -816 -788 -777 -512 -512 -778 -507 -774 -821 -796 -783 -780 -484 -447 -396 -392 -605 -519 -244 -217 -244 -215 -180 -133 -307 -271 33 62 26 19 29 91 79 16 -272 -336 -315 0 99 -69 -47 309 161 189 210 192 243 569 607 403 384 599 537 210 247 212 167 160 336 260 -91 94 67 16 -322 -377 -153 -210 -527 -561 -579 -590 -608 -389 -607 -609 -401 -418 -437 -471 -771 -816 -816 -842 -888 -681 -689 -658 -881 -861 -861 -868 -889 -853 -823 -830 -821 -813 -789 -779 -792 -829 -864 -812 -791 -795 -846 -871 -888 -879 -871 -867 -884 -889 -853 -804 -814 -859 -651 -672 -672 -665 -657 -668 -682 -660 -892 -641 -680 -691 -673 -886 -863 -840 -816 -820 -805 -799 -826 -874 -647 -861 -839 -834 -814 -844 -866 -893 -882 -862 -863 -863 -879 -878 -882 -889 -823 -489 -409 -612 -543 -351 -68 169 606 802 744 910 1364 1641 1737 2363 2502 3154 3313 3889 3729 3746 3737 3915 3456 3402 2702 2376 1437 679 -61 -388 -1040 -1396 -1876 -2586 -3427 -4125 -4258 -4718 -4541 -4546 -4530 -4680 -4286 -4435 -4441 -4435 -4075 -3823 -3698 -3355 -2783 -2460 -2402 -2113 -1871 -1451 -1577 -1218 -1367 -1303 -985 -964 -924 -1085 -707 -819 -405 -255 -148 -294 46 70 61 11 -313 -150 -228 -545 -613 -395 -409 -390 -616 -576 -542 -253 -206 -142 -345 -309 -274 14 50 63 33 -261 -269 -274 -295 -314 -311 -305 -301 -261 37 63 75 97 105 110 -124 -92 -100 110 79 110 -87 -91 -123 118 -112 -102 -101 -94 -72 -45 -27 -36 -54 -38 -5 294 315 279 -1 263 291 310 294 299 344 329 326 375 191 212 175 131 188 525 589 561 546 518 542 546 572 583 592 608 625 624 629 625 388 430 431 441 456 506 785 775 775 509 805 815 851 865 873 856 652 707 723 757 744 745 726 1045 1115 1143 901 914 919 953 1295 1301 1289 1005 1013 1311 1371 1172 1161 1198 1244 1543 1246 1256 1538 1536 1554 1617 1658 1661 1439 1483 1521 1848 1841 1863 1862 1894 1716 1789 2067 2093 2105 2127 2146 2146 1929 1927 1927 1942 1975 1991 2004 2312 2374 2416 2407 2385 2375 2391 2424 2187 2203 2206 2185 2203 2227 2242 2273 2287 2245 2207 2218 2221 2200 2195 2431 2396 2362 2383 2398 2374 2322 2016 1958 2151 2074 1785 1722 1666 1871 1796 1486 1412 1611 1548 1212 1373 1281 944 1129 1028 669 872 806 474 400 595 569 228 147 354 273 -102 70 -258 -315 -383 -196 -530 -626 -445 -491 -778 -815 -839 -856 -893 -713 -1061 -1115 -1149 -909 -932 -946 -950 -960 -995 -1294 -1315 -1334 -1368 -1389 -1388 -1363 -1333 -1320 -1332 -1356 -1387 -1168 -1198 -1226 -1216 -1204 -1188 -1182 -1205 -1211 -1211 -1207 -1210 -1215 -1235 -1234 -1226 -1193 -1184 -1177 -1176 -1211 -1212 -1213 -1200 -1183 -1177 -1178 -1399 -1397 -1182 -1207 -1166 -1372 -1337 -1362 -1393 -1391 -1371 -1342 -1343 -1373 -1153 -1404 -1381 -1350 -1359 -1361 -1368 -1365 -1364 -1354 -1320 -1335 -1350 -1346 -1360 -1360 -1350 -1344 -1344 -1346 -1337 -1341 -1325 -1300 -1299 -1282 -1294 -1013 -1008 -1011 -979 -1007 -995 -962 -949 -955 -959 -952 -919 -929 -953 -963 -931 -927 -907 -912 -941 -914 -900 -931 -990 -1024 -992 -908 -1060 -1026 -1032 -1060 -1078 -1076 -1065 -1044 -1026 -754 -723 -690 -676 -676 -670 -669 -893 -669 -708 -740 -758 -737 -703 -700 -715 -733 -763 -735 -687 -646 -652 -679 -706 -716 -681 -871 -856 -656 -687 -667 -885 -877 -891 -888 -877 -896 -675 -681 -670 -647 -865 -866 -873 -838 -807 -782 -772 -789 -816 -824 -817 -804 -774 -496 -500 -782 -805 -801 -787 -780 -787 -795 -829 -852 -848 -858 -861 -845 -819 -804 -829 -848 -847 -830 -842 -856 -863 -827 -816 -811 -778 -774 -801 -812 -801 -783 -483 -455 -432 -417 -410 -386 -637 -626 -620 -596 -534 -229 -204 -169 -356 -300 -285 -301 -289 11 56 110 -123 -100 -79 -89 -110 98 54 47 57 107 -85 -35 301 370 197 216 540 567 574 587 598 401 438 410 549 229 160 139 153 130 337 -31 -83 108 31 -300 -354 -380 -153 -194 -211 -208 -251 -238 -228 -227 -521 -608 -404 -427 -464 -493 -487 -793 -809 -840 -854 -884 -646 -895 -859 -852 -836 -823 -817 -783 -495 -475 -466 -451 -450 -458 -474 -794 -862 -654 -652 -877 -843 -885 -660 -895 -887 -872 -865 -859 -883 -889 -877 -834 -823 -844 -822 -781 -499 -510 -512 -798 -791 -795 -802 -810 -840 -852 -832 -824 -821 -813 -842 -830 -785 -778 -770 -501 -791 -814 -795 -788 -808 -853 -873 -867 -858 -846 -838 -835 -827 -512 -467 -422 -560 -181 -272 -99 331 540 508 717 971 1178 1435 1729 2318 2465 3178 3622 3923 3737 3951 3890 3577 3685 3405 2740 2399 1464 722 274 -605 -1068 -1237 -1713 -2614 -3456 -3978 -4672 -4608 -4962 -4966 -4956 -4565 -4652 -4225 -4466 -4246 -4382 -4101 -3484 -3354 -2735 -2634 -2321 -1738 -1460 -1195 -993 -1137 -1057 -1052 -1037 -1054 -1043 -717 -875 -482 -565 -365 46 115 -114 -128 93 62 5 -342 -142 -210 -548 -551 -538 -246 -211 -160 -375 -343 -299 3 35 50 36 48 78 108 97 71 54 23 16 -267 -283 -309 -299 -263 49 101 121 -125 -90 -37 -46 -66 -53 -54 -89 -87 -49 -32 -18 -18 -18 -3 291 317 315 307 301 318 338 367 382 151 155 158 162 186 194 191 173 147 142 161 170 182 187 205 255 550 577 552 572 613 633 631 615 634 413 428 441 444 479 772 772 498 498 503 784 825 815 804 799 793 824 844 890 684 732 744 735 744 1033 1040 1042 1046 1079 1124 901 908 924 951 980 1021 1296 1318 1313 1331 1374 1394 1163 1391 1402 1180 1219 1262 1279 1279 1554 1570 1618 1636 1451 1519 1820 1831 1853 1881 1912 1905 1684 1687 1709 1724 1743 1757 2064 2101 2130 1927 1922 1975 2013 2030 2022 1999 2037 2324 2360 2391 2382 2379 2395 2411 2201 2239 2267 2282 2277 2282 2240 2215 2204 2208 2231 2251 2255 2275 2572 2570 2296 2263 2237 2214 2198 2213 2217 2184 2386 2331 2023 1971 1928 2127 2092 1765 1702 1676 1917 1840 1457 1593 1230 1402 1353 1317 1011 928 1081 750 673 847 506 426 615 524 169 374 341 283 -52 85 -257 -289 -307 -355 -166 -243 -565 -620 -385 -385 -426 -485 -817 -877 -660 -698 -751 -1041 -1059 -1076 -1095 -1120 -1139 -915 -943 -949 -978 -1013 -1017 -1008 -1021 -1282 -1302 -1329 -1336 -1309 -1300 -1297 -1314 -1339 -1361 -1369 -1355 -1335 -1355 -1360 -1362 -1376 -1396 -1385 -1390 -1397 -1402 -1407 -1399 -1394 -1397 -1163 -1164 -1403 -1383 -1360 -1372 -1405 -1194 -1210 -1173 -1375 -1316 -1287 -1292 -1313 -1320 -1325 -1327 -1302 -1023 -1293 -1298 -1319 -1321 -1327 -1332 -1328 -1312 -1314 -1317 -1321 -1317 -1311 -1318 -1312 -1295 -1285 -1286 -1013 -993 -982 -1018 -1300 -1293 -1022 -978 -956 -955 -961 -975 -994 -990 -984 -986 -972 -969 -958 -925 -900 -1139 -1123 -1116 -1111 -1117 -1125 -1121 -1091 -1081 -1072 -1072 -1069 -1090 -1107 -1113 -1104 -1111 -1134 -1144 -1117 -1090 -1113 -1142 -905 -897 -1117 -1103 -1080 -1096 -1094 -1084 -1045 -759 -736 -767 -1055 -1073 -1060 -1050 -768 -748 -750 -752 -761 -763 -766 -749 -736 -725 -709 -708 -709 -703 -710 -743 -761 -1029 -756 -695 -649 -645 -677 -729 -1036 -741 -696 -660 -890 -649 -656 -686 -678 -656 -647 -651 -887 -886 -653 -692 -737 -762 -731 -704 -695 -689 -708 -714 -717 -726 -742 -764 -727 -701 -674 -681 -699 -700 -691 -678 -657 -655 -669 -687 -680 -676 -679 -672 -690 -697 -697 -677 -896 -651 -659 -714 -705 -660 -878 -854 -828 -805 -789 -776 -773 -484 -458 -421 -392 -630 -640 -388 -575 -226 -147 -376 -356 -333 -314 -279 37 105 108 106 110 117 112 90 47 8 24 69 -100 -1 350 142 228 537 561 576 604 394 441 437 445 419 624 574 524 220 146 331 -17 -103 119 68 5 -323 -380 -158 -176 -199 -225 -567 -389 -429 -440 -404 -615 -617 -417 -480 -771 -800 -838 -870 -889 -655 -704 -749 -761 -1036 -1058 -1036 -755 -708 -675 -654 -646 -865 -846 -835 -816 -862 -665 -676 -659 -668 -657 -699 -723 -731 -730 -725 -727 -698 -657 -648 -647 -883 -664 -683 -680 -649 -855 -874 -655 -675 -689 -653 -670 -704 -710 -749 -734 -736 -762 -729 -693 -667 -678 -689 -670 -665 -891 -643 -693 -723 -727 -704 -683 -641 -647 -666 -670 -650 -663 -675 -651 -857 -840 -836 -796 -770 -467 -410 -578 -211 -325 115 306 541 462 653 1140 1354 1646 1723 2326 2451 3115 3273 3845 3716 3733 3926 3580 3668 3413 2721 2389 1442 667 -75 -472 -956 -1414 -1933 -2844 -3665 -4448 -4870 -5121 -5001 -5040 -5000 -4795 -4535 -4294 -4473 -4476 -4364 -3819 -3462 -3374 -2758 -2646 -2018 -1682 -1599 -1362 -937 -1057 -741 -706 -724 -736 -725 -663 -817 -449 -577 -208 -383 -309 27 62 52 19 -287 -372 -176 -246 -532 -557 -574 -585 -595 -573 -247 -180 -135 -322 0 47 78 79 77 67 25 4 -264 -273 -280 -270 -286 -307 -286 -285 -275 5 74 -115 -71 -81 -89 -81 -66 -45 -43 -41 -26 264 -8 -22 -27 -10 261 -2 -14 260 299 343 355 378 375 336 322 332 343 360 136 176 192 181 158 150 178 201 211 223 230 214 193 176 165 157 199 515 590 639 405 408 396 402 394 402 413 417 429 463 478 485 496 792 853 885 882 886 663 688 679 655 685 723 742 1033 1034 1070 1095 1112 1145 1145 1149 924 954 958 961 985 1004 1003 1013 1328 1393 1181 1206 1198 1236 1276 1584 1624 1611 1621 1637 1442 1494 1494 1532 1821 1838 1842 1823 1829 1839 1839 1902 1730 2085 2132 2118 2127 2155 1937 1959 1989 2012 2331 2352 2390 2427 2189 2418 2431 2223 2274 2268 2281 2562 2563 2573 2584 2582 2571 2569 2592 2623 2641 2638 2653 2628 2637 2657 2669 2678 2668 2646 2626 2578 2276 2245 2224 2192 2408 2344 1992 1930 1937 1977 1971 2144 2052 1707 1897 1846 1796 1477 1412 1603 1546 1225 1184 1385 1287 903 1052 729 669 860 797 455 630 561 519 214 151 322 -12 -62 -126 54 -258 -302 -360 -178 -249 -526 -536 -554 -598 -639 -438 -495 -786 -821 -836 -878 -660 -683 -706 -699 -715 -720 -747 -1048 -1092 -1116 -1123 -1126 -1112 -1105 -1128 -925 -942 -939 -925 -937 -979 -1008 -1009 -966 -948 -942 -970 -975 -967 -963 -981 -989 -1021 -1292 -1010 -988 -992 -1012 -1019 -1021 -1301 -1317 -1300 -1022 -994 -967 -995 -1283 -1285 -1286 -989 -990 -971 -949 -944 -951 -930 -931 -911 -917 -932 -951 -969 -962 -935 -914 -935 -943 -992 -1307 -1330 -1020 -942 -916 -903 -930 -923 -906 -911 -910 -914 -908 -916 -924 -908 -904 -1150 -1151 -1139 -1139 -1150 -899 -1140 -1115 -1112 -1097 -1094 -1089 -1090 -1092 -1076 -1069 -1079 -1079 -1077 -1064 -1045 -766 -741 -747 -754 -1063 -1105 -1100 -1097 -1083 -1053 -1048 -1067 -1077 -1046 -746 -737 -741 -728 -668 -650 -660 -668 -690 -686 -686 -677 -686 -727 -761 -1029 -754 -740 -745 -756 -766 -1035 -766 -742 -721 -721 -735 -752 -760 -740 -716 -687 -673 -658 -655 -881 -849 -860 -652 -676 -655 -643 -643 -654 -645 -889 -870 -871 -878 -870 -895 -889 -866 -856 -862 -839 -823 -806 -834 -847 -840 -847 -848 -824 -802 -781 -804 -839 -887 -652 -880 -841 -810 -793 -800 -501 -497 -481 -509 -807 -785 -772 -800 -785 -504 -490 -459 -464 -483 -473 -472 -445 -446 -470 -487 -478 -442 -390 -392 -423 -409 -416 -405 -628 -607 -592 -590 -553 -211 -163 -138 -354 -342 -326 -303 3 78 -110 -56 -28 284 322 344 351 349 310 -11 -42 -34 -15 311 164 532 616 424 769 832 859 870 887 874 883 640 894 838 782 450 407 613 548 216 132 288 -56 125 70 23 -257 -327 -146 -180 -204 -240 -533 -563 -545 -233 -245 -576 -632 -617 -577 -607 -431 -486 -506 -781 -504 -489 -474 -463 -435 -421 -432 -448 -441 -418 -423 -413 -638 -612 -607 -604 -635 -415 -454 -490 -490 -491 -499 -776 -808 -815 -791 -480 -448 -452 -466 -456 -424 -407 -421 -466 -494 -507 -495 -472 -461 -479 -484 -490 -474 -468 -444 -455 -512 -799 -511 -468 -438 -454 -470 -480 -494 -498 -457 -433 -431 -450 -467 -477 -481 -478 -443 -407 -390 -409 -422 -398 -638 -393 -404 -400 -400 -418 -408 -600 -247 -160 -319 68 -41 165 405 891 1103 1284 1215 1475 2083 2238 2694 3402 3858 4153 3997 4218 4119 3746 3548 3247 2805 2223 1501 738 -20 -404 -1124 -1581 -2118 -2857 -3469 -4241 -4930 -5202 -5033 -5091 -5062 -5153 -4873 -4618 -4302 -4255 -4090 -3797 -3679 -3039 -2912 -2264 -2141 -1519 -1212 -953 -738 -854 -508 -473 -505 -825 -839 -773 -399 -527 -379 47 -99 -71 -91 -122 89 41 2 -306 -373 -185 -210 -206 -210 -193 -180 -141 -362 -318 -293 3 45 105 -103 -98 -119 96 73 47 13 -280 -314 -309 -308 -304 -265 41 79 100 -116 -102 -91 -90 -117 -108 -103 -94 -36 267 295 284 292 308 321 310 285 261 -23 -4 301 364 168 203 239 248 235 223 223 223 195 183 190 216 243 237 231 251 516 551 592 600 582 563 555 572 586 610 636 391 629 416 460 475 474 435 404 435 473 511 784 774 510 505 500 784 814 814 824 840 863 656 676 673 684 700 711 714 734 747 761 1046 1086 1135 908 911 943 983 1003 1012 1023 1014 1302 1349 1403 1171 1229 1229 1184 1160 1209 1546 1608 1638 1624 1598 1584 1621 1431 1476 1468 1467 1518 1859 1682 1725 1741 1753 1784 1783 2055 2087 2118 2137 2172 1963 1985 1994 2003 2014 2043 2328 2350 2342 2361 2393 2178 2200 2228 2242 2254 2273 2272 2240 2212 2252 2294 2562 2302 2270 2246 2229 2251 2265 2244 2227 2203 2408 2373 2377 2403 2393 2322 1978 1929 2165 2159 2142 2112 2059 1710 1869 1836 1518 1463 1613 1271 1168 1314 979 941 918 1089 711 645 873 853 505 410 569 210 362 331 296 -34 -94 102 37 -277 -293 -333 -363 -185 -553 -412 -486 -775 -784 -817 -868 -891 -871 -865 -895 -698 -761 -1064 -1117 -899 -1147 -1135 -1140 -918 -961 -995 -992 -958 -938 -941 -939 -957 -977 -994 -1008 -964 -956 -970 -957 -957 -957 -983 -988 -1004 -1014 -977 -970 -982 -1001 -1295 -1305 -1022 -1298 -1312 -1291 -1285 -1306 -1302 -1304 -1300 -1329 -1330 -1307 -1307 -1330 -1360 -1312 -1017 -986 -1013 -1333 -1370 -1385 -1354 -1312 -1284 -1305 -1287 -1020 -988 -963 -977 -981 -982 -975 -987 -990 -981 -996 -986 -956 -926 -1149 -1107 -1104 -1138 -904 -931 -926 -907 -1130 -1073 -1063 -1062 -1098 -1092 -1103 -1105 -1089 -1035 -1033 -1036 -1047 -1043 -1044 -1039 -1048 -1048 -1069 -1064 -1057 -1034 -756 -1031 -1053 -1030 -759 -1029 -1052 -1035 -721 -689 -700 -676 -661 -671 -704 -730 -732 -705 -682 -689 -660 -892 -644 -644 -661 -676 -667 -656 -674 -672 -668 -664 -895 -861 -879 -880 -890 -655 -649 -884 -872 -857 -873 -880 -860 -808 -784 -807 -811 -820 -853 -661 -669 -851 -808 -795 -806 -823 -833 -815 -811 -792 -812 -826 -822 -851 -860 -852 -846 -844 -837 -806 -511 -512 -776 -796 -819 -830 -848 -863 -874 -841 -817 -784 -802 -789 -769 -781 -788 -804 -845 -834 -783 -486 -462 -466 -475 -493 -809 -838 -790 -495 -426 -424 -431 -417 -411 -419 -404 -616 -558 -545 -544 -247 -199 -152 -354 -294 34 88 92 94 122 116 125 -87 -59 -26 280 267 -52 -90 -91 -48 309 135 195 249 552 639 428 473 784 834 808 802 800 797 467 390 579 553 515 231 186 345 -26 -119 73 45 -278 -351 -147 -220 -246 -237 -246 -518 -515 -569 -584 -615 -600 -397 -437 -474 -495 -780 -830 -840 -829 -862 -874 -865 -855 -865 -829 -824 -798 -772 -494 -448 -457 -475 -481 -488 -505 -473 -458 -399 -623 -426 -489 -789 -820 -832 -839 -856 -877 -875 -843 -504 -452 -447 -472 -478 -507 -778 -782 -770 -504 -509 -778 -781 -774 -789 -770 -487 -453 -419 -398 -406 -459 -482 -476 -474 -443 -452 -486 -477 -464 -460 -462 -771 -787 -770 -489 -460 -451 -453 -477 -483 -466 -457 -480 -494 -774 -779 -790 -512 -438 -638 -528 -168 -328 60 -8 229 436 677 919 1181 1444 1731 2041 2451 3148 3619 3782 4022 4352 4081 3995 4138 3728 3676 3160 2241 1504 719 269 -565 -1041 -1226 -2070 -2847 -3684 -4083 -4722 -4975 -4843 -5147 -4792 -4537 -4301 -4424 -4413 -4069 -4158 -3890 -3265 -3133 -2471 -2342 -1742 -1429 -1397 -921 -1028 -664 -799 -453 -458 -455 -451 -410 -591 -188 -285 95 -69 -9 263 258 -18 -40 -72 -112 79 -263 -310 -347 -155 -166 -382 -354 -329 3 103 -103 -69 -18 261 279 293 299 272 -63 -106 -127 120 -127 -125 -106 -78 -62 -50 -18 -12 256 292 319 323 349 131 154 159 137 379 135 146 373 343 323 340 367 139 167 170 203 228 249 527 524 238 221 229 240 517 547 573 618 615 592 584 627 413 454 444 459 464 452 466 474 506 778 503 501 779 799 835 853 844 857 642 661 664 692 705 712 688 692 722 757 1064 1114 1127 1110 1060 1066 1096 1099 1093 1088 1098 896 916 900 926 986 1293 1328 1341 1358 1341 1364 1174 1210 1221 1217 1210 1236 1252 1267 1581 1617 1620 1609 1630 1428 1434 1504 1809 1810 1816 1811 1801 1846 1904 1669 1710 1727 2063 2110 2153 2170 2160 1935 1968 1980 1971 2015 2329 2379 2349 2305 2026 2044 2390 2196 2218 2234 2225 2224 2218 2180 2222 2269 2303 2578 2581 2598 2624 2618 2604 2574 2284 2289 2585 2642 2653 2563 2256 2236 2230 2203 2391 2334 2320 2320 2313 2037 1952 2151 2117 2104 2058 1704 1893 1830 1522 1469 1426 1636 1573 1225 1390 1306 966 1145 1048 763 699 841 496 400 591 578 542 188 312 -46 -86 87 -264 -290 -341 -142 -220 -547 -601 -628 -385 -387 -427 -476 -778 -812 -827 -858 -669 -714 -704 -686 -708 -740 -761 -742 -735 -757 -1061 -1118 -1129 -1112 -1149 -943 -956 -1014 -1003 -958 -937 -955 -1003 -1024 -1283 -986 -993 -1288 -1297 -1020 -1006 -1000 -1009 -1003 -994 -981 -980 -972 -956 -964 -992 -1288 -1024 -1022 -1288 -1325 -1363 -1327 -1292 -989 -959 -970 -959 -998 -1018 -972 -967 -956 -953 -914 -1139 -905 -938 -950 -930 -951 -953 -946 -938 -960 -973 -959 -960 -946 -959 -988 -966 -1149 -1112 -1076 -1080 -1058 -1070 -1055 -1063 -1078 -1085 -1067 -1041 -1043 -1077 -1069 -766 -726 -726 -733 -1027 -1034 -1026 -748 -720 -700 -707 -713 -699 -711 -732 -738 -681 -832 -801 -856 -667 -676 -889 -878 -646 -684 -689 -892 -836 -847 -871 -871 -860 -848 -870 -864 -854 -822 -814 -802 -814 -827 -845 -853 -832 -812 -792 -506 -802 -866 -881 -856 -826 -811 -796 -782 -789 -807 -812 -797 -778 -769 -776 -494 -480 -475 -490 -489 -425 -421 -455 -506 -769 -464 -433 -411 -401 -431 -462 -446 -436 -452 -461 -451 -391 -633 -401 -386 -639 -435 -500 -509 -478 -459 -465 -492 -490 -451 -439 -636 -598 -608 -640 -416 -433 -415 -633 -578 -526 -215 -174 -151 -133 -360 -334 -311 0 78 106 -117 -106 -85 -77 -69 -41 -35 262 297 301 263 -66 -119 -70 -24 271 301 357 163 253 580 629 398 409 423 436 418 423 453 417 594 556 546 518 197 365 290 -8 -64 -104 -101 -105 100 31 -299 -357 -134 -158 -194 -225 -180 -150 -144 -174 -207 -250 -550 -615 -438 -488 -507 -771 -777 -780 -501 -468 -447 -462 -480 -459 -435 -425 -440 -449 -462 -495 -484 -469 -490 -511 -769 -490 -495 -785 -793 -797 -832 -847 -828 -793 -802 -801 -833 -834 -774 -461 -432 -465 -500 -775 -782 -808 -782 -512 -801 -828 -833 -792 -470 -441 -433 -450 -512 -801 -820 -823 -787 -505 -456 -452 -430 -413 -421 -487 -781 -772 -464 -468 -479 -460 -418 -415 -411 -422 -430 -444 -433 -403 -630 -582 -241 -153 -328 55 260 222 418 846 1053 1288 1255 1467 1744 2332 2687 3083 3283 3726 3974 4022 4004 4206 4107 3911 3309 2754 2349 1613 814 -98 -563 -701 -1379 -1718 -2530 -3323 -4116 -4401 -4288 -4623 -4637 -4328 -4400 -3984 -3978 -4050 -3988 -3781 -3689 -3012 -2894 -2583 -2039 -1791 -1816 -1592 -1159 -998 -1129 -1069 -1052 -1068 -1082 -1031 -874 -446 -531 -141 19 -116 -34 -11 -32 -63 120 52 7 -318 -137 -196 -204 -190 -231 -247 -181 -381 -286 70 121 -110 -93 -56 -29 -18 -37 -54 -57 -82 -95 -98 -75 -59 -85 -121 127 -104 -57 260 302 348 357 349 354 355 373 381 352 347 366 343 323 341 128 186 225 230 204 171 180 233 247 230 225 226 191 147 144 175 209 231 540 572 603 599 616 389 403 415 404 427 424 425 461 503 784 783 769 785 817 840 857 865 856 813 804 840 880 681 713 711 708 721 722 741 1058 1081 1107 1134 899 909 951 979 989 975 1004 1019 1018 1018 1012 1291 1322 1312 1338 1369 1386 1161 1202 1262 1564 1547 1544 1262 1277 1572 1617 1478 1798 1528 1808 1844 1834 1861 1917 1723 2054 2103 2166 1932 1920 2157 2131 2142 1927 1956 1973 2316 2392 2210 2251 2219 2195 2187 2190 2240 2565 2567 2583 2566 2301 2579 2618 2661 2453 2443 2432 2434 2647 2655 2672 2682 2448 2685 2464 2497 2511 2484 2453 2669 2646 2681 2684 2665 2662 2596 2303 2297 2259 2251 2418 2369 2311 1969 2139 2095 2057 1758 1692 1816 1450 1647 1615 1552 1194 1375 1335 1287 943 1114 732 644 831 487 441 394 564 217 141 321 274 -66 89 -257 -288 -321 -347 -131 -218 -588 -439 -489 -789 -842 -871 -873 -871 -650 -683 -720 -1031 -1051 -1059 -1079 -1119 -1128 -1132 -899 -923 -937 -939 -930 -981 -1300 -1396 -1167 -1199 -1179 -1397 -1397 -1181 -1238 -1235 -1208 -1167 -1404 -1154 -1407 -1161 -1192 -1216 -1185 -1156 -1397 -1167 -1193 -1167 -1396 -1374 -1376 -1376 -1179 -1231 -1226 -1207 -1220 -1211 -1214 -1220 -1237 -1234 -1206 -1250 -1261 -1185 -1388 -1394 -1396 -1154 -1159 -1167 -1188 -1179 -1390 -1394 -1163 -1179 -1174 -1401 -1379 -1342 -1343 -1374 -1398 -1181 -1159 -1379 -1346 -1335 -1339 -1369 -1396 -1397 -1381 -1383 -1162 -1390 -1346 -1304 -1008 -967 -943 -999 -1303 -1299 -1284 -997 -976 -981 -972 -981 -997 -982 -960 -971 -1004 -999 -991 -978 -980 -991 -967 -991 -1285 -1320 -1312 -995 -921 -1144 -1142 -897 -936 -928 -924 -1132 -1102 -1090 -1093 -1119 -911 -921 -1119 -1108 -1118 -1147 -1094 -1054 -1080 -1098 -1113 -1082 -1057 -1041 -1051 -1088 -1084 -1070 -1035 -1031 -736 -745 -753 -1037 -1050 -1079 -1045 -753 -745 -750 -1025 -1057 -1074 -1058 -762 -728 -705 -704 -715 -735 -724 -716 -715 -759 -1027 -1047 -1036 -766 -1026 -1031 -766 -749 -751 -765 -765 -761 -1030 -1049 -1027 -734 -713 -690 -648 -882 -892 -669 -704 -734 -737 -702 -650 -646 -651 -667 -663 -667 -651 -647 -865 -838 -839 -812 -505 -460 -439 -438 -402 -613 -557 -251 -224 -209 -179 -354 -300 -278 -320 -327 -294 -260 -266 -281 -322 -339 -349 -330 -266 48 -122 -20 306 357 141 380 197 517 539 512 237 212 166 139 369 355 307 304 276 -40 -114 80 -257 -326 -138 -159 -379 -375 -148 -187 -214 -515 -545 -564 -615 -389 -407 -446 -444 -451 -476 -504 -796 -865 -891 -867 -882 -881 -818 -777 -776 -814 -817 -809 -770 -487 -481 -477 -488 -457 -478 -483 -784 -829 -892 -652 -885 -880 -667 -697 -712 -673 -649 -872 -857 -854 -877 -878 -893 -675 -700 -675 -878 -845 -832 -843 -849 -858 -864 -867 -864 -890 -650 -896 -852 -833 -827 -829 -811 -799 -804 -805 -798 -806 -850 -888 -878 -829 -777 -470 -466 -507 -816 -818 -780 -472 -432 -403 -611 -545 -194 -317 124 335 560 783 756 980 1169 1646 1918 1982 2604 2790 3241 3870 3773 3808 3776 3939 3533 3292 3169 2598 1665 918 181 -161 -878 -1011 -1457 -2344 -3165 -3916 -4361 -4617 -4735 -4519 -4559 -4556 -4678 -4252 -4443 -4230 -4443 -4034 -3722 -3591 -2988 -2906 -2596 -2322 -2071 -1857 -1442 -1598 -1253 -1176 -1389 -1364 -1349 -1336 -997 -1083 -878 -417 -230 -134 -382 -350 -350 -150 -218 -524 -577 -422 -792 -842 -841 -769 -486 -482 -435 -596 -551 -519 -201 -153 -382 -154 -165 -186 -195 -216 -238 -519 -561 -550 -519 -225 -197 -185 -215 -247 -238 -227 -186 -154 -137 -354 -327 -304 -293 -304 -315 -330 -360 -352 -346 -288 7 21 21 17 3 21 50 72 66 89 105 107 111 100 121 121 108 114 -120 -104 -105 -77 -60 -44 -56 -72 -45 265 297 323 291 267 286 339 149 172 169 153 144 142 170 210 253 513 249 549 588 582 605 620 402 441 405 412 449 488 787 814 828 831 830 858 874 888 891 642 671 736 733 740 765 1046 1074 1077 1081 1100 1138 926 1023 1328 1367 1384 1373 1381 1391 1164 1190 1216 1238 1553 1599 1621 1633 1435 1461 1446 1421 1450 1493 1530 1801 1876 1912 1908 1911 1695 1771 2115 2159 2144 2163 1931 1971 2026 2324 2311 2305 2037 2318 2367 2393 2388 2361 2358 2385 2415 2201 2221 2214 2210 2183 2411 2408 2193 2208 2211 2189 2411 2430 2177 2428 2406 2349 2328 2041 2017 1989 1947 2129 1790 1715 1912 1863 1809 1473 1625 1263 1163 1372 1312 986 928 1109 754 644 823 500 447 386 561 513 214 135 296 -23 -77 100 -274 -352 -140 -212 -514 -568 -387 -460 -784 -839 -863 -653 -697 -726 -762 -1053 -1075 -1097 -1146 -936 -993 -1011 -1016 -1290 -1294 -1328 -1334 -1332 -1317 -1355 -1164 -1221 -1219 -1192 -1178 -1164 -1170 -1180 -1195 -1208 -1215 -1226 -1236 -1266 -1266 -1268 -1234 -1229 -1208 -1194 -1190 -1183 -1181 -1164 -1402 -1166 -1183 -1176 -1177 -1190 -1214 -1212 -1189 -1169 -1155 -1160 -1388 -1386 -1155 -1174 -1174 -1186 -1198 -1205 -1187 -1171 -1167 -1173 -1171 -1176 -1170 -1395 -1363 -1353 -1335 -1339 -1354 -1366 -1345 -1339 -1327 -1341 -1372 -1378 -1155 -1174 -1392 -1318 -1287 -1303 -1333 -1372 -1389 -1393 -1356 -1313 -1323 -1353 -1349 -1322 -1314 -1297 -1303 -1312 -1293 -1293 -1290 -975 -977 -980 -964 -961 -989 -957 -921 -927 -930 -950 -955 -928 -913 -924 -923 -925 -913 -1111 -1080 -1080 -1110 -1131 -1129 -1089 -1078 -1119 -1107 -1063 -1082 -1092 -1064 -1061 -1073 -1067 -1063 -1033 -747 -722 -706 -722 -763 -1051 -1060 -1048 -1042 -1059 -1050 -1026 -742 -732 -723 -747 -732 -718 -735 -743 -748 -728 -659 -875 -879 -648 -668 -649 -881 -870 -865 -863 -870 -878 -863 -844 -841 -849 -845 -849 -849 -835 -825 -837 -876 -671 -693 -674 -655 -641 -893 -887 -863 -871 -856 -866 -882 -880 -871 -862 -841 -800 -512 -503 -779 -807 -853 -878 -859 -839 -833 -800 -510 -497 -509 -804 -835 -823 -786 -492 -495 -774 -494 -480 -484 -455 -453 -454 -409 -585 -514 -178 -383 -372 -326 -261 35 45 68 100 121 -105 -56 -36 -60 -113 60 20 44 -118 -43 293 330 359 165 206 222 517 548 599 589 612 588 593 540 225 195 187 147 377 306 -30 -128 35 -289 -326 -145 -213 -211 -211 -218 -247 -524 -563 -571 -569 -595 -623 -398 -437 -452 -479 -780 -837 -851 -871 -884 -650 -666 -685 -676 -673 -664 -667 -702 -731 -680 -883 -843 -821 -798 -790 -798 -830 -872 -642 -895 -651 -656 -669 -682 -668 -892 -868 -872 -884 -895 -883 -891 -653 -653 -654 -895 -891 -659 -881 -870 -861 -641 -666 -700 -693 -689 -659 -893 -655 -878 -858 -824 -847 -819 -854 -856 -843 -829 -813 -815 -827 -837 -853 -874 -870 -840 -823 -845 -871 -887 -850 -786 -472 -639 -563 -187 -306 115 319 545 787 1032 1006 1232 1508 2092 2209 2849 3003 3667 3931 3777 3771 3964 3883 3470 3452 2763 2428 1446 661 -90 -461 -1143 -1257 -1749 -2459 -3589 -4064 -4670 -4598 -4954 -4761 -4976 -4548 -4310 -4091 -4083 -4409 -4041 -3745 -3613 -3014 -2937 -2594 -1980 -1878 -1576 -1365 -953 -1099 -762 -745 -1030 -1025 -752 -663 -801 -437 -582 -203 -323 30 108 106 91 37 -279 -368 -189 -535 -582 -589 -566 -560 -548 -256 -212 -157 -328 -281 -268 22 25 10 44 53 69 19 -302 -353 -130 -186 -173 -342 -305 -266 21 19 -264 -263 1 35 99 -114 -87 -63 -48 -63 -73 -86 -89 -91 -83 -75 -87 -95 -83 -58 -22 257 301 345 366 376 371 368 378 366 336 319 325 329 333 358 129 165 175 172 183 172 168 187 196 213 228 255 522 531 545 553 576 588 603 614 611 617 384 430 467 467 480 477 486 485 492 495 490 502 770 794 832 873 678 730 745 752 757 767 1027 1036 1072 1108 1131 1145 929 977 1007 1023 1290 1281 1292 1291 1302 1341 1162 1221 1247 1255 1276 1556 1586 1583 1598 1610 1656 1479 1505 1483 1499 1831 1861 1902 1685 1708 1720 1743 1780 2097 2115 2121 2123 2136 2159 1956 2016 2042 2045 2304 2038 2328 2357 2370 2396 2420 2422 2428 2195 2196 2212 2206 2214 2217 2250 2265 2270 2270 2297 2300 2562 2274 2262 2260 2286 2262 2256 2213 2202 2188 2193 2397 2348 2012 1964 2171 1926 2121 2072 1743 1667 1826 1501 1644 1589 1253 1178 1343 1015 926 1132 1064 740 655 812 459 390 598 533 180 349 279 -69 119 57 -294 -340 -138 -213 -250 -550 -385 -459 -794 -878 -664 -679 -657 -672 -705 -1032 -1078 -1128 -1149 -902 -1141 -906 -915 -906 -917 -943 -958 -973 -970 -983 -1004 -1024 -1284 -1294 -1321 -1326 -1322 -1332 -1325 -1321 -1340 -1343 -1341 -1336 -1337 -1350 -1395 -1157 -1180 -1187 -1176 -1156 -1153 -1159 -1176 -1171 -1399 -1361 -1352 -1346 -1348 -1353 -1376 -1368 -1348 -1325 -1316 -1339 -1322 -1314 -1298 -1296 -1303 -1312 -1306 -1321 -1346 -1343 -1316 -1304 -1301 -1313 -1333 -1302 -1003 -981 -974 -973 -969 -975 -983 -986 -979 -969 -943 -956 -984 -1007 -1020 -999 -988 -1003 -991 -972 -974 -965 -956 -968 -981 -997 -991 -941 -908 -899 -924 -935 -948 -971 -984 -1006 -1002 -947 -911 -1148 -910 -910 -904 -1141 -1124 -1126 -1142 -1142 -1138 -1133 -1123 -1103 -1072 -1067 -1076 -1084 -1103 -1139 -1116 -1086 -1053 -756 -761 -1034 -1047 -1047 -1035 -758 -731 -726 -718 -719 -713 -709 -696 -675 -658 -663 -678 -674 -653 -666 -692 -699 -666 -669 -668 -665 -896 -877 -879 -878 -871 -863 -882 -643 -892 -868 -864 -856 -857 -851 -869 -867 -859 -863 -858 -877 -853 -841 -856 -868 -861 -870 -651 -666 -891 -809 -770 -512 -791 -809 -815 -808 -803 -801 -817 -832 -827 -819 -794 -786 -782 -777 -800 -807 -802 -819 -835 -852 -847 -813 -818 -819 -806 -785 -499 -482 -481 -477 -489 -489 -473 -481 -496 -769 -783 -493 -471 -457 -437 -431 -442 -402 -385 -617 -592 -536 -197 -148 -375 -331 -310 -268 32 86 -118 -114 -91 -32 273 292 290 288 280 -32 -99 -103 -54 285 368 168 240 543 623 405 431 471 465 776 808 821 801 474 433 396 609 557 179 345 265 -70 -86 92 39 -271 -342 -354 -151 -159 -146 -152 -175 -241 -232 -221 -246 -533 -591 -617 -633 -401 -426 -457 -481 -496 -790 -839 -877 -876 -823 -788 -769 -501 -498 -482 -459 -435 -413 -423 -425 -460 -472 -488 -773 -512 -778 -820 -847 -865 -857 -837 -833 -822 -831 -822 -798 -788 -770 -772 -770 -500 -498 -512 -808 -817 -793 -792 -821 -825 -825 -805 -806 -832 -848 -852 -842 -808 -797 -804 -805 -807 -800 -791 -773 -487 -451 -436 -463 -506 -503 -481 -506 -503 -490 -471 -474 -470 -438 -388 -605 -569 -514 -188 -334 79 285 226 412 878 1107 1352 1596 1890 1946 2291 2720 3454 3895 4128 4144 3827 3767 3936 3523 3242 3074 2231 1495 705 -34 -413 -901 -1622 -2156 -2872 -3491 -4465 -4593 -4828 -5186 -5238 -5167 -4949 -4683 -4440 -4400 -4376 -4222 -3921 -3297 -3196 -2538 -2403 -1766 -1430 -1390 -1122 -672 -805 -502 -500 -774 -799 -789 -490 -407 -565 -164 -287 86 -113 -51 -24 -43 -106 74 -285 -346 -139 -177 -209 -252 -239 -205 -153 -347 -323 -291 19 83 -115 -87 -56 -61 -85 -124 117 115 112 77 58 62 74 90 116 -125 109 111 -120 -83 -47 -43 -21 -17 -29 -48 -45 -62 -72 -90 -87 -63 -27 -3 256 -12 -2 266 317 339 357 341 334 328 343 353 371 357 336 372 130 371 382 156 195 218 239 533 579 597 582 548 559 601 602 601 607 634 395 413 419 430 442 432 436 450 464 464 467 458 472 506 789 826 857 890 685 710 701 703 703 748 1054 1086 1090 1088 1066 1090 1136 919 951 968 1000 1288 1298 1289 1315 1343 1389 1162 1187 1191 1229 1241 1563 1588 1608 1617 1648 1420 1449 1471 1485 1503 1804 1848 1908 1693 1704 1727 1743 1782 2075 2111 2156 1928 1949 1952 1971 2004 2024 2313 2343 2382 2401 2188 2230 2264 2290 2565 2570 2574 2572 2301 2299 2302 2561 2592 2643 2677 2433 2676 2663 2640 2608 2575 2582 2617 2641 2648 2644 2650 2630 2582 2301 2302 2302 2285 2257 2231 2205 2418 2354 2014 1965 1920 2133 2095 1761 1664 1828 1513 1453 1645 1549 1196 1352 1012 949 899 1100 1034 691 854 495 396 566 242 177 134 339 283 -43 -111 78 14 -302 -350 -372 -148 -190 -243 -574 -625 -418 -465 -504 -778 -817 -853 -888 -686 -719 -762 -1059 -1098 -1114 -1126 -1095 -1079 -1093 -1121 -1151 -921 -942 -946 -932 -940 -985 -1323 -1345 -1345 -1315 -1008 -978 -976 -982 -993 -997 -1009 -1283 -1291 -1302 -1296 -1008 -1006 -1024 -1017 -1289 -1297 -1281 -1020 -1014 -990 -979 -954 -958 -986 -987 -996 -999 -989 -974 -953 -972 -1024 -1296 -1012 -960 -917 -904 -1147 -904 -944 -989 -1010 -996 -976 -950 -942 -1147 -1150 -926 -928 -934 -919 -1139 -1109 -1100 -1136 -925 -932 -949 -951 -927 -927 -957 -972 -949 -954 -960 -985 -991 -1003 -1005 -973 -934 -907 -919 -946 -993 -1295 -1309 -1284 -953 -1139 -1117 -1115 -1149 -930 -915 -903 -907 -1152 -1145 -1132 -1121 -1105 -1109 -1126 -1108 -1102 -1112 -1119 -1095 -1051 -1051 -1091 -1114 -1119 -1101 -1105 -1136 -899 -918 -920 -1095 -1033 -751 -1051 -1087 -1108 -1102 -1088 -1077 -1059 -1048 -1042 -760 -735 -729 -731 -735 -750 -755 -749 -747 -750 -1041 -1047 -1061 -1056 -1052 -1026 -756 -748 -1025 -1059 -1065 -1072 -1069 -1086 -1096 -1070 -1066 -1073 -1069 -1053 -1034 -1035 -1029 -1049 -1067 -1092 -1096 -1113 -1133 -1086 -757 -723 -725 -1025 -1030 -768 -759 -760 -749 -761 -1063 -1068 -1026 -730 -740 -763 -754 -758 -1040 -1087 -1075 -1067 -1041 -739 -719 -724 -767 -1025 -722 -695 -716 -754 -765 -748 -751 -1029 -756 -722 -711 -664 -846 -804 -800 -847 -879 -859 -783 -453 -640 -554 -521 -239 -213 -162 -129 -364 -320 -290 -275 -271 32 50 40 -264 -317 -327 -326 -273 81 -44 264 315 134 213 522 526 561 619 406 397 436 581 240 174 137 139 298 -39 -120 96 11 -331 -130 -191 -527 -598 -410 -434 -439 -436 -428 -428 -445 -450 -465 -512 -825 -879 -647 -884 -667 -716 -751 -1043 -1080 -1082 -1105 -1089 -1073 -1025 -712 -706 -692 -690 -700 -700 -717 -721 -704 -643 -889 -877 -893 -668 -714 -1025 -1037 -1057 -1067 -1091 -1083 -1057 -1031 -765 -750 -717 -681 -671 -673 -667 -689 -734 -1042 -1036 -726 -688 -663 -667 -686 -719 -705 -674 -676 -678 -650 -641 -656 -660 -648 -863 -879 -644 -643 -883 -875 -884 -654 -663 -674 -685 -679 -896 -878 -861 -839 -839 -856 -865 -840 -800 -786 -507 -487 -455 -632 -521 -373 78 289 235 470 728 993 1221 1456 1739 2355 2516 2979 3459 3772 4130 4116 3808 3737 3575 3299 3092 2194 1464 725 260 -387 -916 -1622 -2129 -2869 -3503 -4244 -4920 -5207 -5103 -5457 -5424 -5174 -4592 -4339 -4308 -4340 -4228 -4181 -3550 -3451 -2811 -2662 -2012 -1900 -1595 -1352 -1136 -753 -696 -681 -694 -720 -731 -671 -826 -459 -594 -162 -291 43 77 80 42 -274 -335 -366 -148 -212 -513 -554 -586 -577 -571 -542 -251 -203 -134 -344 -291 15 26 15 17 6 -257 -275 -306 -326 -336 -335 -318 -316 -273 31 58 93 61 48 45 51 59 76 121 -96 -95 124 58 -272 -277 13 63 119 -78 -38 -31 -69 -111 -124 -88 -53 -1 323 128 149 132 369 134 153 383 328 324 361 140 173 211 231 231 230 251 537 568 574 562 560 571 589 619 388 387 398 388 396 443 499 787 801 780 797 830 864 887 644 651 674 720 746 1034 1029 1035 1032 767 763 1024 1055 1095 1082 1095 1130 908 930 966 978 978 981 969 959 983 1003 1334 1385 1196 1260 1539 1547 1572 1599 1614 1637 1410 1426 1442 1495 1813 1868 1895 1668 1919 1664 1671 1715 1772 2073 2074 2086 2134 2160 1929 1960 2000 2305 2319 2315 2346 2360 2403 2421 2180 2194 2248 2289 2569 2283 2262 2276 2571 2593 2594 2637 2677 2669 2618 2618 2658 2684 2456 2445 2658 2622 2618 2646 2675 2674 2627 2593 2565 2252 2202 2201 2210 2198 2404 2353 2030 1963 2160 2116 2080 2064 1722 1900 1828 1487 1639 1554 1206 1377 1299 943 1132 1095 1095 1082 1027 716 860 448 567 218 141 336 323 333 317 259 -71 -125 33 -311 -363 -192 -252 -548 -604 -614 -389 -440 -493 -812 -825 -828 -823 -884 -702 -749 -753 -1055 -1097 -1083 -1055 -1038 -1085 -1127 -899 -922 -915 -911 -1141 -1113 -1137 -902 -917 -969 -987 -966 -918 -901 -913 -911 -912 -906 -915 -932 -906 -903 -937 -931 -903 -908 -936 -977 -1018 -991 -943 -915 -913 -908 -911 -935 -960 -963 -950 -898 -1099 -1108 -1137 -1130 -1120 -1117 -1121 -1119 -1122 -1134 -1129 -1128 -904 -906 -918 -901 -1107 -1082 -1083 -1110 -1144 -925 -906 -1140 -1108 -1087 -1079 -1080 -1064 -1069 -1091 -1091 -1070 -1040 -1030 -753 -737 -755 -1039 -1083 -1115 -1152 -902 -1084 -756 -727 -711 -707 -720 -737 -758 -1027 -757 -729 -720 -696 -691 -663 -664 -707 -723 -683 -646 -657 -890 -877 -846 -824 -828 -842 -832 -802 -503 -510 -784 -782 -804 -782 -787 -781 -776 -830 -872 -882 -823 -786 -792 -796 -806 -826 -848 -796 -775 -795 -820 -805 -774 -489 -476 -464 -417 -435 -478 -476 -491 -793 -823 -848 -826 -786 -488 -444 -446 -433 -439 -444 -443 -442 -456 -434 -417 -446 -456 -408 -608 -574 -582 -629 -416 -442 -461 -480 -482 -490 -488 -458 -452 -474 -478 -450 -427 -408 -446 -450 -436 -422 -417 -406 -411 -421 -423 -400 -633 -607 -595 -582 -554 -531 -540 -240 -162 -365 -358 -318 -289 -287 -270 9 60 -124 -90 -49 -4 -3 -34 -79 125 68 55 99 -92 -40 280 308 363 153 531 618 386 393 425 477 785 803 789 486 420 622 582 575 554 533 185 343 267 -84 90 48 43 35 -282 -341 -136 -176 -199 -187 -170 -183 -239 -547 -576 -602 -623 -399 -411 -445 -487 -781 -510 -508 -490 -498 -499 -484 -459 -436 -427 -407 -399 -632 -603 -573 -574 -568 -574 -603 -388 -430 -457 -488 -501 -510 -509 -491 -490 -496 -448 -614 -620 -406 -417 -401 -403 -424 -410 -450 -502 -496 -454 -457 -463 -465 -468 -452 -434 -447 -441 -418 -417 -399 -629 -623 -604 -601 -609 -387 -417 -438 -419 -623 -616 -627 -626 -598 -586 -553 -554 -602 -639 -391 -608 -548 -213 -137 -306 53 -80 303 237 427 874 1082 1294 1250 1452 1706 2012 2640 3076 3273 3716 4022 4387 4387 4064 4189 3755 3492 3375 2827 2131 1337 560 -296 -482 -1123 -1603 -2349 -2952 -3931 -4070 -4331 -4728 -4500 -4695 -4262 -4060 -4201 -4007 -4078 -4010 -3813 -3711 -3040 -2895 -2270 -1939 -1881 -1617 -1380 -937 -1064 -737 -723 -703 -672 -662 -870 -774 -410 -246 -298 120 -31 268 270 -1 -50 94 8 -338 -210 -549 -586 -541 -237 -184 -144 -334 19 84 114 -107 -85 -68 -39 -28 -42 -58 -94 -123 78 49 108 -115 -112 -120 -89 -55 -7 284 291 291 269 264 301 349 383 149 146 360 339 309 345 363 320 283 257 316 339 345 375 129 154 159 168 186 205 228 240 522 551 570 581 587 566 544 251 515 568 617 633 637 635 632 389 406 410 412 430 457 498 798 790 768 505 783 824 868 892 650 661 669 687 690 683 706 1032 1041 765 761 1064 1128 915 1143 1108 1101 1102 1147 929 990 1018 1305 1344 1333 1288 1284 1320 1315 1377 1189 1240 1263 1253 1244 1541 1588 1601 1623 1408 1452 1460 1470 1468 1485 1821 1889 1686 1693 1701 1727 1738 1753 1790 2104 2137 2139 2148 1944 2000 2030 2314 2336 2371 2385 2408 2177 2418 2411 2411 2397 2193 2219 2219 2244 2295 2288 2577 2594 2611 2623 2640 2634 2626 2608 2620 2654 2676 2432 2687 2434 2652 2299 2577 2587 2562 2566 2269 2299 2271 2219 2423 2345 2304 2001 1974 2168 2075 1747 1710 1691 1878 1806 1487 1428 1619 1257 1397 1283 940 1073 717 650 831 795 781 499 434 546 183 359 306 -26 -98 108 50 -297 -137 -204 -253 -535 -576 -631 -431 -438 -468 -784 -848 -680 -708 -719 -752 -1033 -1057 -1072 -1104 -1115 -1120 -908 -949 -936 -910 -926 -981 -1289 -1297 -1322 -1310 -1311 -1310 -1303 -1296 -1289 -1021 -1307 -1357 -1371 -1330 -1020 -1010 -1286 -1303 -1329 -1369 -1372 -1350 -1307 -1330 -1350 -1363 -1378 -1379 -1365 -1368 -1382 -1400 -1404 -1385 -1375 -1367 -1375 -1369 -1343 -1325 -1340 -1333 -1320 -1303 -1281 -1004 -987 -1006 -1315 -1336 -1301 -1004 -1022 -1290 -1290 -1304 -1286 -1000 -976 -985 -1292 -1304 -1286 -987 -996 -1001 -1003 -1005 -990 -950 -937 -944 -946 -927 -932 -914 -925 -901 -915 -924 -937 -926 -906 -1127 -1144 -1133 -1138 -1110 -1117 -1084 -1078 -1086 -1121 -1115 -1070 -1101 -1113 -1114 -1090 -1090 -1102 -1056 -1049 -745 -723 -721 -719 -1036 -1048 -751 -744 -767 -762 -732 -711 -718 -688 -675 -671 -711 -731 -752 -751 -739 -738 -765 -764 -749 -733 -731 -688 -657 -668 -723 -735 -738 -726 -718 -728 -727 -685 -669 -655 -641 -647 -883 -876 -879 -652 -669 -651 -670 -674 -653 -886 -876 -866 -853 -848 -858 -870 -852 -858 -866 -880 -887 -864 -844 -832 -821 -793 -798 -806 -829 -824 -815 -809 -830 -829 -821 -799 -794 -802 -809 -800 -790 -797 -803 -803 -798 -804 -788 -776 -782 -801 -779 -475 -409 -637 -600 -553 -247 -199 -156 -138 -132 -363 -293 -271 34 38 56 42 48 27 48 27 17 -313 -306 -305 6 -290 21 95 -54 316 163 202 232 248 528 546 574 574 578 222 183 170 159 351 326 296 -10 -80 88 31 -279 -337 -159 -168 -153 -157 -240 -521 -518 -248 -547 -601 -395 -632 -629 -407 -463 -500 -502 -509 -791 -799 -825 -819 -855 -816 -795 -503 -503 -503 -507 -773 -511 -454 -422 -387 -602 -617 -438 -487 -796 -819 -822 -819 -827 -858 -879 -883 -857 -820 -782 -512 -500 -499 -483 -487 -510 -494 -478 -495 -499 -771 -511 -496 -491 -491 -504 -791 -799 -785 -483 -454 -441 -436 -433 -451 -501 -815 -844 -812 -786 -490 -456 -436 -448 -465 -471 -467 -470 -472 -467 -451 -411 -636 -593 -541 -209 -364 15 -64 144 588 794 753 962 1165 1658 1693 2011 2652 2791 3450 3844 3821 4165 4162 3829 3946 3509 3451 2709 2331 1592 799 108 -405 -766 -1399 -1691 -2490 -3586 -4211 -4285 -4735 -4539 -4509 -4665 -4254 -4082 -4055 -4413 -4406 -3971 -3885 -3264 -3189 -2856 -2259 -1923 -1883 -1659 -1260 -1157 -1303 -929 -1107 -1089 -1092 -763 -653 -512 -611 -224 -346 3 84 -126 117 56 20 -257 -304 -129 -205 -249 -531 -544 -523 -238 -209 -195 -167 -343 39 -125 -101 -117 125 113 124 -123 -128 93 75 55 50 44 25 16 18 48 107 -79 -29 -31 -61 -78 -70 -45 -44 -43 -38 -20 266 271 282 283 287 280 284 274 267 314 366 366 130 370 364 348 360 357 357 364 370 375 157 174 168 154 179 207 213 239 545 532 253 251 524 535 570 601 618 597 579 596 614 628 624 390 436 479 486 469 420 418 462 490 785 797 779 787 832 891 673 683 688 694 715 753 1031 1039 1052 1080 1106 1115 1133 1134 916 934 949 944 929 935 996 1317 1363 1395 1397 1172 1235 1269 1276 1568 1640 1434 1466 1474 1503 1795 1848 1900 1667 1911 1912 1684 1750 2050 2051 2054 2058 2062 2107 2156 1944 1976 2001 2025 2308 2344 2364 2380 2386 2402 2420 2194 2216 2245 2283 2574 2595 2587 2573 2578 2572 2594 2604 2621 2614 2617 2592 2593 2600 2597 2579 2564 2562 2297 2275 2240 2245 2248 2238 2207 2409 2337 2004 1937 1925 2156 2099 1772 1706 1901 1848 1795 1446 1624 1559 1209 1386 1335 1013 924 1074 727 646 819 490 427 613 537 201 380 295 -21 -88 99 26 -307 -356 -176 -244 -557 -601 -402 -483 -815 -845 -879 -659 -677 -717 -763 -1063 -1111 -1146 -1151 -945 -968 -943 -913 -904 -935 -968 -1015 -1307 -1331 -1350 -1363 -1361 -1366 -1378 -1394 -1179 -1202 -1196 -1180 -1159 -1163 -1171 -1158 -1394 -1371 -1351 -1383 -1182 -1224 -1249 -1205 -1384 -1333 -1293 -1012 -999 -1004 -1309 -1356 -1390 -1408 -1161 -1170 -1161 -1375 -1324 -1298 -1301 -1331 -1352 -1365 -1386 -1393 -1388 -1373 -1353 -1310 -1290 -1284 -1294 -1306 -1300 -1293 -1293 -1292 -1291 -1303 -1306 -1305 -995 -984 -976 -990 -1008 -991 -969 -937 -914 -913 -958 -935 -900 -1144 -1132 -1120 -1114 -1134 -903 -898 -1120 -1106 -1098 -1104 -1093 -1071 -1063 -1057 -1044 -1044 -1044 -756 -738 -725 -730 -737 -748 -737 -743 -735 -725 -722 -685 -882 -854 -852 -863 -877 -649 -642 -652 -646 -644 -653 -661 -650 -887 -877 -870 -882 -663 -678 -698 -702 -681 -669 -659 -659 -886 -865 -884 -876 -860 -856 -827 -808 -811 -803 -812 -785 -785 -807 -820 -819 -810 -819 -851 -850 -839 -841 -853 -866 -871 -834 -804 -815 -856 -894 -659 -888 -842 -821 -822 -823 -817 -814 -817 -794 -807 -830 -842 -845 -828 -806 -787 -778 -772 -803 -803 -780 -502 -508 -773 -787 -508 -486 -773 -773 -510 -508 -801 -822 -839 -827 -512 -455 -441 -424 -411 -396 -630 -597 -558 -523 -237 -225 -215 -170 -134 -340 -274 48 82 108 -125 -82 -83 -108 -113 -98 -90 -99 123 103 116 -125 -69 295 348 183 250 546 586 618 420 485 788 788 795 469 630 568 566 604 578 520 191 359 296 -36 -126 59 12 -285 -323 -333 -174 -243 -252 -519 -514 -536 -567 -614 -640 -395 -411 -428 -442 -477 -511 -801 -838 -848 -871 -856 -838 -847 -823 -811 -779 -490 -495 -459 -439 -440 -445 -449 -435 -445 -477 -802 -810 -825 -825 -820 -830 -818 -831 -877 -642 -887 -839 -792 -771 -826 -860 -854 -851 -814 -806 -793 -789 -793 -793 -790 -775 -497 -779 -855 -850 -808 -774 -510 -784 -502 -454 -420 -402 -428 -442 -456 -466 -457 -473 -463 -450 -444 -440 -458 -451 -431 -393 -585 -559 -545 -192 -287 -82 340 250 429 894 1122 1363 1607 1880 1935 2288 2941 3408 3852 4155 3972 4203 4123 3772 3868 3311 3102 2240 1508 744 278 -582 -749 -1181 -1733 -2469 -3613 -4369 -4514 -4967 -4758 -4758 -4989 -4576 -4618 -4414 -4411 -4450 -4067 -3785 -3684 -3340 -2698 -2563 -1938 -1864 -1605 -1373 -922 -1046 -742 -737 -745 -747 -727 -653 -787 -395 -238 -363 -271 40 69 62 36 -276 -343 -172 -245 -559 -616 -639 -406 -457 -472 -492 -435 -603 -515 -160 -336 3 47 43 13 -287 -319 -303 -300 -321 -324 -319 -319 -311 -270 23 51 88 112 123 -127 -108 -103 -113 -113 127 106 -121 -118 -120 -113 -105 -101 -89 -76 -64 -33 -27 -7 273 263 259 276 292 291 298 305 329 339 333 325 356 361 371 166 199 183 343 264 -18 318 164 512 568 570 544 522 524 534 561 582 601 621 396 411 393 388 417 426 453 497 501 511 783 775 504 780 774 492 472 483 510 802 849 665 712 731 731 741 760 757 1033 1101 1147 898 933 939 964 994 1005 1299 1355 1370 1370 1400 1183 1227 1269 1568 1566 1569 1588 1625 1424 1458 1489 1497 1523 1832 1889 1666 1908 1873 1865 1693 1788 2091 2111 2131 2129 2146 1935 1965 1986 1972 1949 1975 2026 2320 2365 2419 2214 2221 2225 2219 2228 2249 2269 2287 2565 2573 2597 2599 2597 2588 2566 2301 2579 2604 2608 2582 2284 2231 2194 2185 2193 2203 2415 2367 2332 2033 2001 1964 1929 2140 2066 1729 1677 1882 1827 1496 1427 1596 1243 1160 1350 1300 973 916 1085 732 894 834 511 427 589 255 194 345 -15 -83 -123 98 37 -288 -335 -161 -550 -624 -638 -388 -418 -455 -506 -805 -647 -698 -742 -765 -1059 -1088 -1096 -1081 -1103 -1127 -1151 -932 -975 -1011 -1023 -1303 -1328 -1372 -1375 -1375 -1374 -1383 -1377 -1371 -1366 -1384 -1401 -1407 -1176 -1197 -1183 -1178 -1174 -1181 -1183 -1193 -1213 -1236 -1251 -1252 -1251 -1225 -1190 -1170 -1175 -1202 -1217 -1227 -1224 -1227 -1209 -1181 -1179 -1178 -1188 -1195 -1184 -1154 -1153 -1391 -1154 -1154 -1165 -1181 -1189 -1182 -1185 -1166 -1191 -1226 -1231 -1223 -1202 -1173 -1389 -1373 -1360 -1351 -1357 -1368 -1385 -1155 -1407 -1381 -1346 -1309 -1296 -1310 -1317 -1306 -1301 -1298 -1294 -1317 -1299 -1298 -1296 -1019 -982 -974 -999 -1019 -1284 -1015 -986 -934 -911 -926 -950 -921 -897 -1150 -940 -971 -959 -943 -920 -1136 -1080 -1074 -1073 -1125 -1119 -1099 -1093 -1103 -1110 -1106 -1124 -1102 -1065 -1040 -1040 -1025 -1027 -1056 -1102 -1106 -1086 -1042 -747 -756 -751 -742 -745 -751 -756 -1038 -1053 -1035 -725 -681 -672 -679 -680 -714 -725 -721 -712 -729 -726 -710 -715 -708 -717 -714 -733 -728 -728 -699 -673 -660 -673 -691 -720 -749 -1025 -744 -711 -706 -704 -730 -750 -765 -767 -761 -757 -1048 -1066 -1032 -739 -744 -751 -759 -735 -713 -701 -713 -738 -745 -727 -725 -692 -891 -873 -850 -832 -824 -821 -821 -822 -783 -486 -452 -410 -629 -604 -578 -563 -524 -209 -176 -377 -343 -311 -290 1 57 112 -96 -49 -32 -52 -80 -106 87 66 100 -106 -58 263 338 190 528 609 389 397 638 612 623 429 460 449 638 585 541 513 238 182 348 287 -58 -120 46 -288 -356 -177 -194 -240 -256 -541 -576 -589 -607 -602 -632 -442 -481 -781 -817 -849 -855 -853 -879 -896 -713 -725 -766 -761 -751 -748 -701 -695 -675 -644 -871 -825 -814 -803 -833 -832 -837 -857 -876 -893 -649 -686 -746 -753 -753 -742 -714 -712 -692 -696 -709 -691 -706 -678 -677 -687 -676 -687 -659 -648 -664 -653 -704 -698 -683 -687 -642 -675 -643 -644 -645 -651 -681 -644 -881 -873 -864 -892 -887 -885 -847 -837 -850 -842 -848 -865 -896 -667 -653 -847 -501 -409 -601 -248 -384 22 -42 171 418 644 1106 1296 1259 1825 2172 2625 3130 3600 3919 3772 3799 3753 3945 3566 3590 2945 2654 1731 979 218 -210 -1028 -1234 -1733 -2604 -3404 -3983 -4509 -4790 -5198 -5028 -5109 -5017 -4806 -4548 -4656 -4647 -4277 -4041 -3950 -3308 -3175 -2540 -2412 -1767 -1430 -1160 -943 -1029 -675 -645 -665 -693 -698 -657 -824 -462 -603 -232 -383 -295 0 0 -261 -282 -329 -135 -205 -545 -604 -637 -629 -628 -623 -610 -563 -534 -239 -178 -132 -341 -331 -322 -326 -318 -351 -129 -182 -191 -166 -133 -364 -368 -382 -154 -160 -142 -321 3 45 48 16 4 28 80 104 105 109 115 119 94 59 68 101 113 112 -128 -102 -68 -47 -14 -7 256 -6 264 276 266 -5 -17 256 260 292 314 363 382 132 133 148 161 178 194 220 216 194 195 213 245 514 254 254 519 556 575 607 614 609 589 591 581 605 627 404 434 441 454 484 504 780 808 811 814 829 863 881 870 848 816 831 649 735 1066 1103 1119 1119 1114 1114 1111 1099 1132 909 960 1293 1360 1396 1173 1195 1197 1189 1196 1229 1553 1620 1413 1445 1484 1495 1517 1528 1813 1847 1871 1893 1683 1757 2053 2067 2061 2080 2092 2110 2154 2165 1922 1951 1985 2006 2308 2337 2371 2359 2368 2378 2391 2402 2426 2177 2216 2251 2272 2287 2300 2292 2294 2275 2294 2570 2576 2570 2564 2295 2246 2228 2241 2267 2250 2202 2400 2355 2335 2336 2331 1999 1926 2131 2091 1790 1736 1694 1886 1824 1476 1640 1587 1254 1186 1374 1317 983 1151 1076 737 654 849 796 768 421 581 201 148 367 335 -22 -114 80 23 -283 -351 -185 -529 -571 -393 -422 -484 -791 -829 -837 -660 -707 -756 -751 -1028 -1026 -1047 -1070 -1118 -1149 -927 -936 -950 -939 -939 -943 -1005 -1013 -1286 -1013 -1295 -1024 -1290 -1281 -1286 -1013 -1016 -1021 -1335 -1399 -1397 -1365 -1330 -1336 -1345 -1376 -1368 -1379 -1376 -1392 -1388 -1390 -1363 -1360 -1364 -1349 -1319 -1331 -1374 -1396 -1371 -1313 -1288 -1290 -1308 -1349 -1385 -1401 -1366 -1319 -1020 -1023 -1326 -1333 -1331 -1335 -1337 -1330 -1328 -1333 -1313 -1291 -1281 -1284 -1015 -1281 -1291 -1024 -1022 -1290 -1297 -1284 -978 -928 -920 -967 -1009 -1023 -1003 -965 -936 -960 -1002 -980 -952 -938 -953 -956 -946 -915 -1126 -1091 -1101 -1134 -913 -931 -912 -1144 -1144 -907 -916 -900 -1141 -1126 -1144 -899 -906 -922 -953 -927 -929 -921 -921 -932 -904 -1144 -1142 -1129 -1114 -1115 -1101 -1073 -1064 -1092 -1130 -909 -1143 -1076 -758 -713 -723 -745 -752 -731 -745 -758 -1025 -1037 -1045 -1032 -1028 -761 -1036 -1088 -1105 -1115 -1097 -1085 -1060 -1043 -1035 -1028 -761 -761 -761 -766 -768 -1042 -1071 -1036 -734 -694 -687 -716 -700 -694 -697 -696 -693 -709 -693 -687 -690 -691 -695 -725 -708 -705 -721 -719 -693 -676 -690 -714 -712 -693 -704 -721 -728 -737 -730 -743 -734 -702 -695 -682 -664 -666 -680 -666 -861 -820 -797 -805 -826 -817 -511 -392 -555 -245 -238 -216 -159 -340 -311 -302 -264 37 90 -112 -89 -86 -100 -92 -110 -121 123 -108 -83 -41 295 152 244 605 392 404 453 498 792 791 779 507 429 597 586 590 547 197 351 259 -83 -128 86 21 -313 -136 -207 -253 -568 -629 -416 -399 -392 -400 -417 -392 -597 -599 -420 -481 -769 -829 -858 -860 -862 -870 -821 -808 -838 -662 -663 -880 -869 -834 -789 -507 -490 -470 -456 -442 -472 -770 -776 -772 -507 -495 -778 -798 -817 -864 -866 -866 -835 -800 -510 -496 -495 -784 -790 -778 -782 -807 -819 -835 -871 -880 -829 -797 -783 -507 -512 -797 -823 -836 -794 -498 -492 -498 -512 -475 -476 -489 -777 -790 -779 -794 -797 -801 -826 -840 -813 -773 -486 -444 -386 -601 -529 -140 13 -101 341 544 486 661 907 1390 1630 1715 2314 2438 3105 3300 3952 4152 4195 4175 4097 3930 3478 3418 2697 2315 1572 779 48 -504 -919 -1616 -1945 -2761 -3902 -4263 -4897 -5135 -5200 -5234 -5144 -4919 -4670 -4294 -4292 -4270 -4088 -3735 -3588 -3168 -2525 -2426 -2119 -1530 -1224 -959 -1062 -694 -654 -657 -654 -642 -855 -500 -632 -514 -139 -284 72 -99 -52 -60 -92 87 -263 -369 -188 -525 -560 -586 -563 -523 -231 -218 -168 -132 -359 -330 -299 -293 -266 34 58 76 57 41 8 -264 -259 -284 -302 13 95 -98 -59 -74 -70 -78 -91 -64 -20 276 -11 -43 -32 -14 -19 -45 -47 -36 -25 258 267 261 260 292 331 340 350 355 354 369 151 151 382 375 143 141 145 160 175 193 191 194 207 230 520 544 542 540 548 547 565 591 625 638 631 616 598 595 583 604 393 433 472 495 496 504 770 505 499 500 790 870 641 889 879 647 692 746 1033 1050 1053 1068 1060 1051 1069 1092 1100 907 915 1146 914 976 1292 1304 1288 998 1003 1305 1333 1360 1398 1200 1260 1547 1561 1563 1565 1584 1630 1426 1449 1456 1469 1490 1792 1841 1889 1914 1716 1750 1752 1731 1728 1742 1771 2096 2169 1989 2047 2330 2363 2388 2367 2345 2333 2332 2380 2178 2204 2237 2291 2579 2611 2610 2620 2620 2596 2590 2596 2585 2302 2589 2576 2568 2301 2561 2572 2294 2224 2185 2423 2412 2385 2347 2317 2305 2000 1940 2154 2093 2049 1754 1697 1908 1877 1822 1524 1492 1657 1276 1392 1022 988 949 1137 1052 723 642 862 785 464 399 571 231 160 360 314 -2 -86 72 17 -273 -276 -325 -384 -191 -243 -561 -387 -420 -481 -799 -832 -862 -650 -691 -706 -714 -751 -1040 -1057 -1089 -1100 -1117 -1141 -1134 -1137 -908 -926 -930 -939 -981 -1022 -1281 -1003 -965 -938 -988 -1018 -1004 -1002 -1306 -1337 -1357 -1334 -1298 -990 -964 -975 -978 -1005 -1016 -1024 -1013 -1021 -1310 -1011 -987 -1010 -1282 -1319 -1292 -1005 -1022 -1009 -995 -1014 -1287 -1300 -1316 -1292 -1283 -1285 -1283 -1286 -1286 -1008 -1281 -1017 -1016 -1008 -978 -901 -1143 -915 -960 -972 -988 -964 -916 -897 -923 -961 -974 -923 -1141 -1124 -1124 -1126 -1120 -1122 -1141 -1139 -897 -1148 -1136 -1098 -1082 -1090 -1106 -1132 -908 -903 -1143 -1119 -1093 -1073 -1075 -1086 -1061 -755 -733 -749 -1060 -1073 -1048 -1044 -757 -728 -745 -1054 -1037 -1049 -1053 -1057 -1074 -1064 -1036 -738 -723 -708 -710 -745 -1045 -752 -705 -715 -710 -695 -687 -706 -696 -689 -674 -682 -692 -683 -685 -675 -648 -872 -877 -666 -686 -644 -883 -891 -883 -842 -806 -815 -813 -815 -871 -656 -886 -870 -852 -816 -802 -819 -877 -658 -646 -874 -862 -854 -879 -656 -660 -896 -862 -841 -804 -512 -770 -802 -859 -888 -856 -814 -777 -782 -781 -500 -477 -467 -444 -427 -393 -633 -618 -590 -570 -572 -553 -535 -253 -187 -148 -365 -329 9 57 91 127 -106 -113 -109 122 69 13 -257 28 59 114 -87 -28 -2 307 137 220 516 247 247 527 605 416 456 433 607 541 244 249 255 225 146 300 -52 -119 72 59 43 -260 -333 -154 -206 -246 -229 -236 -520 -561 -604 -406 -432 -472 -497 -773 -771 -782 -842 -879 -846 -808 -812 -839 -864 -873 -839 -802 -794 -811 -778 -478 -481 -471 -470 -451 -420 -403 -506 -841 -888 -691 -690 -659 -877 -866 -854 -850 -866 -876 -861 -840 -822 -788 -512 -794 -826 -863 -827 -780 -493 -507 -511 -791 -794 -787 -511 -511 -504 -769 -487 -461 -470 -478 -469 -483 -479 -504 -499 -795 -777 -475 -421 -429 -780 -816 -845 -784 -464 -634 -585 -522 -199 -280 -70 368 514 442 679 954 1170 1649 1700 1994 2648 2802 3307 3925 4168 3974 3976 4140 3767 3849 3279 2746 2382 1661 674 259 -517 -666 -1307 -1904 -2466 -3306 -4106 -4377 -4283 -4335 -4349 -4335 -4463 -4061 -4009 -4055 -4026 -4154 -3881 -3213 -3074 -2506 -2425 -2094 -1794 -1575 -1164 -1288 -913 -1089 -1057 -1029 -738 -707 -885 -484 -570 -144 -274 68 121 -109 -93 -103 90 -273 -363 -166 -219 -533 -561 -546 -526 -514 -229 -159 -338 6 63 98 109 -126 -111 -100 116 87 68 52 31 -265 -264 7 11 14 10 35 62 88 -119 -86 -68 -79 -97 -81 -23 269 299 293 -5 -39 -47 -46 -49 -61 -47 -15 -4 280 281 307 284 261 290 377 134 133 153 165 168 144 166 194 234 235 234 220 218 524 578 390 414 639 620 627 391 388 405 416 403 423 448 780 819 785 769 791 803 839 886 655 659 688 700 667 663 673 683 694 751 1076 1085 1088 1101 1131 897 939 981 994 1005 1000 1280 1286 990 1011 1022 1288 1356 1383 1172 1214 1252 1278 1558 1565 1602 1593 1622 1647 1438 1465 1491 1816 1902 1722 1768 1758 1762 2053 2077 2074 2065 2069 2093 2171 1988 2015 2001 2019 2306 2356 2391 2421 2204 2208 2189 2219 2261 2284 2577 2582 2589 2617 2609 2611 2630 2662 2440 2485 2512 2506 2470 2434 2687 2685 2440 2460 2479 2475 2451 2665 2630 2612 2603 2595 2582 2571 2268 2224 2412 2349 2308 1995 1951 1924 2103 1771 1685 1850 1523 1459 1644 1577 1258 1178 1346 995 911 1090 1025 701 870 505 408 582 251 183 378 310 -25 -104 74 4 -337 -152 -214 -539 -618 -403 -443 -487 -776 -798 -833 -875 -653 -694 -1025 -1077 -1097 -1104 -1112 -1090 -1086 -1090 -1122 -907 -944 -962 -983 -1004 -1019 -1017 -1003 -1004 -1013 -1000 -984 -995 -1291 -1326 -1339 -1337 -1350 -1350 -1345 -1335 -1338 -1337 -1341 -1318 -1316 -1328 -1324 -1325 -1319 -1296 -1299 -1299 -1321 -1349 -1352 -1344 -1321 -1303 -1323 -1329 -1318 -1332 -1341 -1352 -1351 -1374 -1298 -1292 -1313 -1357 -1369 -1390 -1164 -1396 -1381 -1370 -1356 -1338 -1328 -1305 -1281 -1307 -1295 -1298 -1291 -1290 -1295 -992 -986 -956 -956 -938 -949 -925 -937 -938 -1004 -972 -915 -1127 -1127 -1088 -1076 -1094 -1132 -902 -912 -923 -928 -943 -914 -908 -1150 -1149 -1138 -1120 -1113 -1130 -1130 -1128 -1132 -1134 -1127 -1133 -1124 -1103 -1093 -1116 -1109 -1053 -742 -742 -1027 -1041 -1049 -1048 -1061 -1049 -763 -729 -718 -724 -728 -723 -704 -688 -675 -708 -720 -709 -707 -700 -696 -692 -688 -702 -704 -688 -700 -712 -728 -722 -714 -702 -689 -692 -684 -680 -689 -699 -701 -724 -760 -744 -694 -642 -889 -645 -681 -709 -715 -700 -654 -890 -889 -645 -655 -665 -691 -673 -650 -666 -668 -657 -663 -667 -647 -876 -868 -886 -643 -646 -889 -847 -801 -499 -461 -441 -426 -427 -387 -590 -539 -525 -515 -220 -158 -350 -319 -291 5 13 41 86 110 81 46 6 -287 -293 -269 17 52 -128 -85 -17 294 344 376 359 371 168 192 219 234 211 178 140 361 331 300 287 265 -57 117 68 12 -305 -372 -164 -184 -183 -217 -253 -546 -570 -590 -624 -421 -444 -444 -471 -507 -788 -803 -844 -657 -708 -717 -717 -735 -730 -686 -650 -871 -883 -882 -883 -641 -874 -822 -796 -791 -797 -797 -802 -840 -871 -878 -892 -655 -650 -894 -894 -653 -655 -888 -895 -660 -886 -855 -835 -828 -830 -829 -856 -887 -893 -887 -652 -659 -657 -874 -860 -833 -829 -839 -852 -886 -869 -832 -817 -858 -864 -854 -809 -824 -811 -801 -812 -856 -842 -836 -831 -831 -806 -511 -469 -428 -622 -533 -181 -269 -74 150 629 825 750 953 1175 1413 1717 2391 2535 2965 3645 3899 3743 3766 3720 3900 3533 3288 3096 2255 1488 736 319 -256 -663 -1360 -1874 -2300 -3391 -3790 -4417 -4612 -4710 -4495 -4735 -4615 -4454 -4090 -4395 -4432 -4086 -3819 -3473 -3378 -2741 -2601 -2017 -1711 -1468 -1603 -1224 -1356 -1282 -952 -910 -1143 -1086 -733 -843 -455 -558 -183 -347 6 65 69 26 -282 -357 -167 -238 -541 -591 -630 -396 -417 -439 -410 -608 -256 -152 -336 -285 -266 -267 -266 -257 -268 -287 -341 -348 -321 -292 -285 -283 -292 -289 -299 -289 6 63 92 119 -117 -102 -97 -85 -75 -58 -38 -31 -28 -66 -121 112 -114 -98 -79 -47 -14 262 262 266 -10 -28 -46 -21 -3 276 314 338 335 319 314 345 365 135 137 133 370 364 357 141 205 237 226 206 210 516 571 556 522 243 248 542 581 615 638 636 633 396 418 465 510 788 787 796 802 812 844 867 892 888 885 880 890 659 671 677 699 719 713 723 754 1062 1067 1077 1131 945 973 975 976 947 929 965 1281 1367 1185 1226 1249 1276 1546 1276 1560 1613 1657 1434 1461 1510 1800 1831 1869 1919 1710 1765 2079 2105 2110 2091 2120 2165 1953 1971 1977 1987 2001 2032 2319 2365 2401 2422 2427 2200 2232 2228 2233 2247 2265 2280 2287 2299 2583 2599 2607 2607 2591 2584 2604 2625 2618 2302 2231 2196 2184 2205 2200 2431 2405 2365 2310 2013 1984 1968 1931 2119 1790 1706 1893 1825 1491 1422 1620 1565 1250 1191 1370 1284 909 1060 723 656 844 787 454 631 525 205 159 378 326 -13 -115 43 -283 -314 -131 -191 -254 -585 -390 -437 -497 -796 -835 -869 -661 -690 -738 -767 -1060 -1089 -1109 -1129 -898 -944 -959 -979 -1016 -1321 -1330 -1333 -1326 -1313 -1317 -1343 -1370 -1375 -1355 -1380 -1408 -1159 -1408 -1408 -1156 -1175 -1187 -1173 -1394 -1403 -1408 -1392 -1382 -1385 -1160 -1169 -1154 -1390 -1376 -1379 -1396 -1387 -1374 -1361 -1370 -1373 -1338 -1329 -1335 -1361 -1370 -1360 -1337 -1322 -1313 -1324 -1337 -1330 -1322 -1296 -1283 -1021 -1294 -1297 -1295 -1284 -990 -975 -968 -970 -962 -962 -973 -969 -976 -979 -990 -982 -966 -958 -960 -965 -942 -935 -925 -948 -968 -958 -941 -932 -924 -938 -966 -985 -1000 -963 -914 -1132 -1114 -1093 -1089 -1117 -1136 -1139 -917 -943 -1151 -1095 -1065 -1054 -1075 -1103 -1116 -1112 -1084 -1043 -1026 -1025 -1036 -1033 -1032 -1044 -1063 -1067 -1050 -750 -726 -719 -740 -753 -750 -743 -741 -739 -726 -707 -690 -677 -651 -887 -876 -880 -888 -652 -656 -652 -650 -648 -643 -644 -660 -665 -666 -671 -668 -676 -685 -680 -673 -681 -701 -715 -690 -651 -651 -659 -658 -647 -882 -862 -848 -849 -853 -868 -890 -657 -658 -647 -890 -865 -861 -869 -856 -851 -826 -819 -822 -836 -851 -850 -842 -845 -860 -851 -818 -794 -769 -487 -454 -406 -610 -569 -550 -514 -247 -229 -183 -144 -360 -303 10 61 88 119 -93 -59 -52 -56 -75 -102 108 62 55 106 -88 -40 277 342 154 245 577 618 622 389 401 387 619 596 589 555 536 241 206 151 330 279 -62 119 13 -309 -359 -375 -157 -190 -190 -225 -544 -579 -574 -587 -604 -399 -458 -776 -798 -772 -813 -872 -887 -652 -658 -685 -737 -741 -728 -716 -685 -861 -839 -817 -790 -505 -479 -490 -498 -504 -785 -784 -803 -839 -859 -871 -891 -655 -677 -681 -685 -690 -687 -675 -665 -658 -649 -643 -872 -837 -825 -848 -871 -884 -878 -863 -877 -883 -642 -649 -890 -875 -875 -857 -862 -864 -845 -841 -829 -798 -779 -772 -786 -811 -810 -800 -813 -818 -821 -850 -875 -875 -850 -830 -807 -782 -464 -410 -630 -593 -515 -353 113 340 581 835 1117 1341 1577 1833 2107 2223 2912 3372 3495 3942 3748 3964 3880 3491 3271 3157 2627 1712 949 218 -199 -744 -1177 -1666 -2240 -3000 -3838 -4661 -4922 -4814 -5124 -5174 -4833 -4868 -4321 -4394 -4226 -4446 -4193 -3567 -3215 -3146 -2508 -2360 -1761 -1477 -1201 -944 -1032 -681 -677 -702 -740 -761 -676 -852 -501 -626 -219 -342 -258 48 61 33 -288 -342 -129 -194 -254 -588 -613 -616 -387 -598 -548 -224 -164 -138 -376 -338 -324 -262 25 12 -262 -286 -291 -300 -302 -330 -336 -343 -348 -340 -305 -268 9 27 33 63 88 105 93 119 -107 -88 -73 -92 -102 -106 -88 -67 -66 -54 -61 -55 -31 -26 -19 -26 -14 269 282 292 289 296 308 317 323 337 338 340 359 381 141 383 380 198 519 525 525 523 539 557 563 569 580 569 563 568 597 617 633 384 406 433 440 429 431 449 465 488 780 826 848 874 891 664 672 673 673 670 687 709 737 762 1045 1072 1084 1103 1125 1151 904 912 910 914 928 969 1009 1338 1172 1207 1202 1183 1209 1241 1276 1548 1561 1585 1607 1637 1662 1472 1798 1858 1886 1906 1915 1678 1702 1731 1759 2050 2083 2124 2147 2170 1938 1972 1998 2041 2315 2322 2310 2308 2328 2359 2419 2188 2186 2185 2181 2222 2239 2261 2261 2247 2245 2251 2265 2294 2584 2584 2570 2290 2279 2270 2270 2262 2285 2274 2247 2194 2187 2417 2382 2339 2316 2020 1988 1921 2135 2077 1753 1702 1892 1854 1817 1481 1645 1580 1258 1217 1178 1332 960 1115 1042 729 672 871 792 465 384 555 227 160 324 -35 124 59 19 -283 -357 -202 -513 -559 -596 -627 -417 -488 -792 -824 -857 -872 -645 -714 -756 -760 -763 -1048 -1114 -902 -919 -1147 -911 -934 -944 -926 -948 -969 -989 -1014 -1018 -1284 -1317 -1336 -1337 -1341 -1315 -1325 -1328 -1334 -1304 -1318 -1334 -1357 -1388 -1400 -1388 -1387 -1383 -1402 -1164 -1157 -1163 -1396 -1362 -1361 -1341 -1359 -1356 -1356 -1337 -1362 -1387 -1393 -1381 -1357 -1326 -1343 -1347 -1342 -1361 -1340 -1303 -1314 -1322 -1317 -1329 -1323 -1326 -1318 -1335 -1321 -1349 -1349 -1324 -1302 -1315 -1316 -1339 -1342 -1377 -1377 -1384 -1330 -1317 -1021 -998 -1281 -1328 -1332 -1341 -1309 -1298 -1005 -1305 -1010 -1011 -980 -977 -990 -998 -977 -975 -938 -921 -923 -973 -974 -943 -1145 -1108 -1120 -1126 -905 -1133 -1147 -1115 -1112 -1125 -900 -1126 -1107 -1057 -1057 -1073 -1111 -1124 -1148 -1125 -1113 -1086 -1101 -1120 -1101 -1109 -1096 -1122 -900 -911 -1104 -1095 -1026 -751 -741 -1030 -1049 -1057 -1048 -1033 -1042 -1035 -1031 -749 -735 -719 -742 -765 -1043 -1025 -755 -733 -716 -699 -703 -683 -667 -671 -678 -691 -712 -717 -717 -720 -707 -692 -671 -678 -662 -666 -657 -661 -688 -694 -673 -674 -649 -659 -672 -655 -890 -856 -856 -865 -895 -658 -668 -660 -648 -646 -646 -665 -698 -686 -658 -647 -890 -896 -656 -679 -661 -875 -874 -884 -893 -883 -867 -850 -836 -830 -830 -824 -795 -507 -482 -474 -477 -492 -451 -439 -639 -591 -537 -518 -220 -188 -130 -336 -297 -260 48 82 117 120 -127 -110 -80 -84 -94 -122 -123 -104 -104 -71 269 150 525 585 604 605 397 477 830 827 822 790 491 429 390 609 575 530 241 164 344 259 -77 69 -277 -329 -379 -178 -217 -243 -522 -539 -562 -544 -532 -248 -558 -417 -502 -787 -792 -809 -842 -896 -646 -889 -892 -651 -695 -737 -750 -746 -695 -650 -883 -867 -852 -822 -800 -826 -851 -851 -841 -858 -895 -658 -696 -730 -742 -766 -1037 -1045 -1028 -1027 -761 -759 -741 -713 -691 -688 -729 -746 -739 -740 -742 -754 -1025 -1028 -742 -684 -641 -894 -659 -678 -660 -879 -896 -671 -681 -689 -687 -672 -667 -717 -752 -732 -702 -674 -643 -877 -651 -689 -738 -736 -723 -720 -713 -706 -651 -858 -845 -882 -882 -883 -851 -795 -485 -407 -559 -156 -258 -55 135 605 829 1067 1285 1551 1853 1940 2612 2799 3274 3846 3725 3719 3933 3882 3497 3261 3111 2577 1894 1147 358 -633 -947 -1663 -2110 -2453 -3227 -3987 -4693 -4737 -5173 -5020 -5119 -5225 -4952 -4661 -4321 -4317 -4420 -4155 -3516 -3421 -2768 -2657 -2045 -1902 -1558 -1013 -1060 -675 -649 -651 -656 -654 -873 -807 -472 -639 -529 -151 -316 10 71 106 87 34 -278 -342 -153 -196 -228 -538 -568 -561 -518 -192 -138 -367 -343 -297 8 59 77 109 -123 125 77 40 16 -263 -264 -271 -262 27 53 92 -117 -110 -82 -38 261 269 258 -3 -9 -18 -34 -48 -54 -31 -32 261 298 320 322 290 258 266 317 375 142 165 192 196 183 158 143 137 133 144 162 147 157 187 199 201 202 223 226 212 231 253 248 523 545 574 601 391 427 439 463 468 460 446 463 496 785 823 839 814 808 824 839 842 860 889 648 648 683 711 737 1030 1051 1024 741 760 1067 1085 904 980 1012 970 940 937 1001 1309 1331 1342 1330 1359 1161 1198 1218 1196 1225 1278 1587 1650 1422 1435 1449 1474 1516 1839 1863 1857 1877 1672 1744 1753 1724 1727 1752 1779 2071 2124 2133 2169 1948 1973 1997 2016 2041 2305 2319 2314 2321 2366 2396 2417 2185 2431 2408 2419 2241 2575 2625 2651 2640 2609 2568 2568 2576 2591 2606 2604 2593 2598 2615 2623 2636 2649 2650 2612 2563 2249 2215 2218 2209 2202 2420 2354 2314 2032 1977 1923 2138 2087 1761 1676 1864 1796 1468 1640 1578 1274 1206 1375 1287 946 1135 1050 709 660 841 508 431 606 240 153 368 326 287 -32 -107 75 11 -312 -131 -181 -242 -531 -568 -602 -397 -465 -497 -484 -791 -840 -893 -678 -730 -1036 -1077 -1064 -1045 -1060 -1115 -1135 -1142 -1142 -898 -905 -932 -922 -927 -971 -990 -1284 -1000 -974 -1015 -1008 -1010 -996 -981 -1284 -1316 -1293 -1298 -1303 -1007 -1015 -998 -1023 -1320 -1020 -1011 -1285 -1000 -996 -1015 -1024 -998 -1012 -1000 -1292 -1330 -1302 -1287 -1005 -1011 -1292 -1324 -1322 -1345 -1314 -1296 -1017 -985 -979 -1002 -1011 -995 -947 -1121 -1102 -1133 -908 -947 -964 -954 -983 -926 -1143 -904 -915 -926 -922 -1152 -1130 -1108 -1082 -1096 -1135 -1137 -1149 -923 -903 -1131 -1129 -1061 -1053 -1028 -742 -1043 -1109 -1109 -1077 -1069 -1038 -1075 -1103 -1065 -1040 -1037 -1033 -765 -750 -726 -747 -742 -692 -685 -700 -701 -704 -700 -702 -723 -750 -754 -723 -712 -690 -677 -662 -894 -878 -891 -688 -696 -698 -672 -886 -874 -655 -653 -881 -874 -844 -833 -839 -834 -811 -820 -818 -822 -823 -827 -815 -806 -777 -498 -510 -770 -797 -799 -810 -819 -854 -892 -652 -893 -842 -845 -854 -815 -801 -818 -845 -881 -876 -853 -800 -496 -460 -458 -471 -490 -499 -790 -844 -812 -510 -458 -438 -467 -475 -771 -789 -790 -509 -501 -498 -502 -784 -812 -834 -776 -468 -431 -436 -465 -462 -426 -386 -636 -393 -403 -418 -444 -439 -458 -465 -460 -438 -442 -442 -421 -638 -617 -387 -414 -420 -407 -404 -422 -436 -434 -428 -422 -632 -626 -401 -396 -623 -559 -543 -255 -227 -242 -529 -246 -201 -177 -145 -353 -304 36 109 -104 -76 -73 -77 -73 -65 -3 322 130 379 329 260 -34 -33 -25 278 343 151 186 516 620 439 467 477 485 511 807 825 803 479 616 550 555 604 610 546 191 346 264 -55 -107 95 36 -272 -307 -308 -320 -133 -219 -225 -185 -171 -191 -249 -538 -541 -556 -578 -628 -403 -447 -466 -772 -808 -812 -499 -448 -452 -463 -427 -396 -399 -414 -408 -640 -611 -614 -388 -419 -461 -773 -794 -784 -505 -783 -829 -849 -838 -864 -836 -798 -510 -459 -420 -626 -395 -456 -486 -459 -445 -467 -473 -449 -429 -414 -401 -640 -388 -396 -402 -430 -456 -438 -437 -422 -636 -597 -606 -398 -424 -633 -628 -389 -636 -396 -406 -393 -401 -433 -429 -419 -456 -439 -639 -629 -419 -456 -468 -476 -426 -617 -607 -610 -622 -391 -425 -404 -418 -398 -565 -230 -211 -170 -366 -273 109 322 521 453 650 1089 1020 1257 1856 1952 2601 2734 3399 3519 3811 4149 4127 4105 3832 3724 3493 3350 2541 2145 1175 478 -122 -565 -741 -1231 -2118 -2910 -3712 -4181 -4380 -4243 -4299 -4288 -4419 -3977 -3752 -3913 -3732 -3958 -3478 -3411 -3087 -2552 -2256 -1935 -1850 -1549 -1281 -1094 -704 -646 -643 -650 -651 -826 -451 -620 -534 -169 -284 126 -10 352 349 273 -62 117 33 -284 -344 -178 -189 -191 -192 -163 -372 -332 -262 77 -88 -22 295 313 298 282 265 -40 -90 -81 -39 257 258 -13 -34 -15 274 309 338 310 295 277 322 352 134 133 381 371 359 354 338 352 364 353 337 332 353 364 374 145 153 375 351 370 139 167 193 218 225 519 567 567 522 551 623 399 385 618 589 579 587 628 427 473 463 440 460 487 785 839 820 814 800 811 850 872 875 669 719 745 743 728 752 1030 763 1045 1053 1061 1074 1043 1033 1030 1041 1105 1134 1127 1115 1113 1147 915 897 940 988 1022 994 912 928 991 1368 1252 1550 1266 1264 1563 1628 1649 1646 1653 1410 1449 1516 1822 1863 1898 1902 1666 1675 1674 1690 1698 1711 1697 1682 1716 1758 2057 2085 2113 1921 1982 2007 1999 2047 2348 2375 2379 2366 2352 2394 2210 2302 2595 2614 2605 2584 2607 2642 2661 2687 2662 2657 2433 2454 2444 2679 2634 2596 2613 2672 2469 2477 2435 2645 2662 2676 2667 2631 2613 2586 2571 2303 2263 2226 2194 2419 2376 2327 2018 1956 2135 2069 1743 1911 1828 1510 1461 1644 1559 1203 1339 1003 933 1140 1060 748 646 797 463 622 558 534 239 140 270 -109 76 34 -286 -323 -359 -368 -153 -228 -541 -616 -435 -476 -492 -496 -774 -784 -803 -843 -657 -713 -723 -755 -1055 -1069 -1065 -1036 -753 -1029 -1055 -1082 -1116 -1139 -898 -923 -986 -990 -940 -940 -958 -964 -947 -938 -971 -940 -959 -968 -989 -986 -957 -1011 -1024 -1351 -1377 -1306 -990 -968 -956 -957 -938 -949 -963 -1289 -1309 -1289 -1015 -997 -1001 -1291 -1376 -1354 -1300 -1303 -1284 -1295 -1001 -971 -989 -989 -1287 -992 -959 -937 -958 -928 -1150 -921 -915 -917 -1150 -1148 -1104 -1040 -1035 -1039 -1030 -1064 -1117 -1106 -1087 -1116 -899 -923 -907 -1100 -1071 -1063 -1044 -1078 -1080 -1085 -1119 -1141 -1114 -1057 -1034 -1034 -1078 -1102 -1083 -1050 -1039 -1038 -1041 -1031 -762 -1036 -1037 -1025 -752 -750 -764 -1053 -1061 -763 -732 -744 -738 -736 -742 -729 -662 -873 -873 -876 -653 -671 -677 -679 -658 -651 -896 -882 -888 -889 -869 -840 -825 -837 -853 -854 -819 -822 -827 -861 -879 -875 -861 -814 -785 -486 -478 -795 -871 -651 -854 -788 -502 -493 -502 -500 -504 -489 -495 -771 -477 -460 -466 -474 -483 -494 -497 -795 -770 -493 -468 -473 -503 -792 -807 -811 -799 -509 -475 -467 -497 -776 -775 -814 -824 -818 -501 -478 -499 -815 -834 -838 -839 -847 -839 -790 -486 -778 -814 -828 -832 -509 -465 -450 -460 -470 -455 -423 -412 -441 -418 -391 -634 -399 -425 -434 -438 -437 -451 -458 -434 -395 -630 -632 -389 -402 -388 -614 -583 -587 -592 -566 -525 -211 -147 -136 -155 -166 -180 -138 -306 20 62 94 122 -120 -111 -96 -77 -87 -83 -45 -21 -25 -42 -35 -27 -43 -35 279 368 218 578 424 477 447 415 427 482 772 777 777 501 425 393 399 627 569 515 186 146 337 271 -47 -94 111 75 33 3 6 11 -260 -266 -289 -336 -373 -165 -201 -196 -211 -235 -517 -528 -554 -597 -600 -612 -392 -393 -633 -604 -569 -547 -533 -232 -197 -180 -195 -202 -188 -189 -202 -222 -227 -517 -550 -578 -601 -615 -611 -605 -574 -611 -626 -599 -584 -554 -578 -579 -564 -590 -576 -584 -581 -572 -613 -599 -615 -396 -400 -408 -624 -574 -618 -631 -606 -602 -582 -608 -616 -548 -542 -552 -523 -568 -576 -550 -539 -241 -237 -559 -565 -527 -561 -542 -525 -542 -533 -535 -558 -537 -569 -580 -576 -597 -575 -578 -619 -611 -600 -574 -251 -213 -176 -374 -356 -293 63 -105 323 526 495 762 1015 1193 1643 1879 2155 2260 2886 3034 3690 3726 4097 4116 3827 3745 3855 3620 2969 2660 2067 1379 457 119 -609 -763 -1201 -2061 -2845 -3607 -3769 -4189 -4038 -4038 -4031 -4222 -3839 -3940 -3878 -3942 -3923 -3712 -3375 -2810 -2527 -2201 -2167 -1882 -1627 -1404 -949 -1048 -730 -710 -705 -685 -664 -851 -474 -622 -232 -312 110 -62 -55 -76 -92 -105 127 89 25 -313 -161 -210 -241 -227 -174 -371 -317 -295 19 96 -112 -94 -91 -84 -109 126 99 97 98 101 104 92 61 59 97 -121 -53 -41 -18 -6 258 -2 -11 -18 -21 -28 257 297 301 304 312 328 318 325 297 283 -15 -21 277 358 147 191 184 164 167 176 189 211 206 204 209 230 236 235 231 234 532 570 566 573 604 384 637 399 419 425 411 424 449 463 474 484 467 479 503 500 509 825 884 672 650 867 860 869 881 642 647 893 660 676 683 703 750 1070 1091 1080 1061 1061 1049 1061 1099 901 946 939 940 975 1287 1300 1309 1341 1398 1184 1199 1198 1188 1202 1236 1538 1566 1603 1413 1453 1497 1517 1532 1805 1807 1832 1867 1896 1912 1681 1697 1721 1767 2063 2119 2140 2143 2156 1942 1965 1989 2021 2321 2335 2354 2384 2397 2390 2403 2421 2190 2235 2268 2279 2296 2565 2603 2616 2618 2621 2636 2617 2616 2607 2622 2671 2435 2681 2657 2641 2652 2667 2643 2613 2590 2300 2257 2202 2430 2377 2044 1994 1936 2129 2089 2076 2083 2053 1725 1879 1528 1448 1595 1236 1172 1370 1314 1013 923 1088 738 643 824 497 426 390 564 223 130 287 -30 -85 115 32 -303 -314 -368 -180 -251 -634 -449 -484 -493 -483 -787 -809 -859 -645 -695 -761 -1040 -1086 -1094 -1132 -1135 -1121 -907 -931 -919 -956 -955 -997 -1286 -1292 -1327 -1315 -1312 -1333 -1330 -1334 -1326 -1304 -1307 -1326 -1316 -1311 -1322 -1348 -1343 -1370 -1375 -1329 -1333 -1327 -1335 -1317 -1323 -1330 -1345 -1346 -1326 -1283 -1287 -1023 -1282 -1321 -1327 -1347 -1390 -1384 -1381 -1350 -1319 -1303 -1012 -1295 -1315 -1311 -1350 -1355 -1309 -1308 -1290 -1306 -1329 -1322 -1323 -1293 -1009 -991 -996 -1281 -1022 -1023 -1283 -1292 -1315 -1347 -1383 -1154 -1160 -1352 -984 -904 -1152 -932 -994 -1003 -992 -984 -976 -988 -963 -944 -930 -920 -928 -929 -922 -904 -1144 -899 -904 -912 -908 -915 -913 -904 -1143 -1143 -1150 -1147 -1149 -1139 -1136 -1111 -1104 -1095 -1097 -1113 -1128 -1149 -913 -1149 -1149 -1124 -1096 -1062 -1029 -1036 -1047 -1042 -1061 -1078 -1096 -1066 -1030 -753 -744 -726 -702 -713 -710 -714 -721 -721 -696 -705 -718 -743 -738 -741 -722 -714 -740 -710 -676 -656 -667 -666 -679 -670 -681 -706 -689 -689 -663 -663 -648 -641 -651 -670 -684 -688 -716 -723 -761 -755 -725 -677 -654 -644 -894 -677 -712 -717 -694 -671 -662 -672 -702 -722 -716 -686 -660 -876 -856 -886 -888 -873 -896 -656 -661 -662 -669 -671 -655 -854 -801 -799 -826 -859 -854 -841 -837 -830 -818 -796 -821 -827 -826 -832 -825 -834 -848 -852 -841 -825 -810 -802 -791 -787 -786 -793 -776 -486 -464 -447 -472 -473 -465 -456 -442 -436 -443 -441 -424 -634 -589 -580 -552 -522 -221 -188 -170 -133 -342 -339 -318 -281 35 120 -69 -21 272 290 291 304 295 266 -61 127 109 112 -65 281 128 514 563 606 637 397 433 476 769 797 785 769 469 393 576 521 204 170 376 360 306 -35 106 19 -277 -313 -343 -369 -381 -163 -186 -197 -176 -150 -169 -192 -197 -546 -572 -582 -631 -408 -481 -770 -778 -810 -831 -872 -885 -841 -809 -495 -450 -470 -485 -776 -503 -469 -465 -449 -448 -450 -446 -464 -481 -500 -789 -795 -809 -835 -827 -823 -801 -812 -848 -831 -804 -484 -448 -457 -457 -473 -481 -481 -476 -485 -497 -475 -476 -475 -498 -497 -464 -461 -445 -446 -449 -457 -474 -455 -467 -461 -502 -472 -448 -453 -438 -452 -450 -472 -774 -798 -508 -474 -455 -427 -430 -425 -445 -456 -464 -473 -447 -445 -429 -403 -391 -389 -634 -620 -611 -576 -530 -206 -384 -298 96 268 236 474 700 905 1370 1584 1844 2122 2191 2832 3010 3702 3741 4116 4117 3818 3747 3857 3601 2990 2456 1765 991 208 -237 -740 -1406 -1862 -2217 -3051 -4112 -4609 -4597 -4988 -4764 -4743 -4597 -4335 -4056 -4212 -4001 -4195 -3950 -3315 -2959 -2863 -2236 -2127 -1512 -1199 -969 -1028 -871 -506 -488 -801 -858 -889 -836 -491 -633 -238 -358 3 76 -116 -80 -80 -114 93 40 -305 -375 -167 -212 -249 -549 -555 -249 -172 -349 -280 35 82 109 121 118 90 52 28 20 39 50 26 28 9 30 66 105 124 127 -121 -86 -43 -1 291 302 315 299 296 311 331 345 348 338 317 264 -35 -34 262 314 343 368 137 173 201 200 207 205 199 197 207 210 231 516 522 246 229 524 561 561 570 567 568 560 577 611 631 631 386 393 411 434 451 481 510 511 507 768 505 774 794 807 832 835 859 887 649 661 667 660 673 685 728 760 1038 1054 1070 1061 1063 1067 1089 1142 902 908 929 944 989 1005 1302 1342 1347 1375 1388 1165 1172 1164 1194 1229 1240 1278 1555 1581 1614 1614 1659 1436 1454 1472 1468 1484 1524 1532 1829 1844 1878 1909 1669 1714 1716 1725 1790 2052 2073 2069 2100 2124 2161 2152 1932 1933 1968 2016 2041 2330 2350 2358 2373 2368 2406 2412 2190 2208 2208 2418 2426 2419 2196 2232 2227 2269 2240 2226 2226 2214 2194 2431 2176 2406 2403 2381 2384 2354 2311 2040 2021 2000 1976 2151 2092 1780 1687 1891 1821 1519 1458 1662 1580 1250 1161 1356 1306 966 1146 1050 730 690 643 820 483 628 539 233 195 154 353 -1 -95 79 9 -321 -348 -131 -192 -569 -398 -417 -401 -436 -478 -796 -840 -876 -879 -653 -690 -722 -748 -1044 -1085 -1115 -1128 -1150 -972 -992 -961 -915 -1151 -925 -953 -980 -1006 -1296 -1308 -1317 -1317 -1323 -1329 -1300 -1018 -993 -990 -1001 -1023 -1301 -1315 -1302 -1309 -1316 -1319 -1312 -1326 -1340 -1347 -1354 -1347 -1317 -1305 -1293 -1299 -1321 -1317 -1288 -1017 -987 -963 -957 -943 -969 -979 -976 -963 -955 -956 -923 -905 -912 -923 -937 -946 -943 -954 -957 -961 -983 -978 -989 -998 -997 -1001 -981 -976 -982 -966 -947 -939 -943 -956 -924 -905 -1144 -1124 -1130 -1124 -1105 -1086 -1082 -1116 -1148 -905 -1136 -1105 -1087 -1117 -1116 -1120 -1105 -1084 -1070 -1090 -1080 -1075 -1067 -1062 -1086 -1059 -1027 -763 -756 -1026 -1040 -1039 -1047 -1045 -1038 -746 -753 -1043 -1041 -1029 -750 -749 -737 -739 -726 -693 -687 -681 -655 -647 -650 -649 -647 -641 -869 -863 -868 -888 -884 -884 -892 -660 -665 -662 -676 -670 -650 -880 -883 -887 -650 -648 -895 -895 -649 -671 -676 -652 -875 -879 -892 -641 -666 -693 -692 -646 -878 -878 -890 -657 -685 -650 -859 -841 -830 -840 -846 -870 -869 -846 -826 -794 -773 -776 -512 -776 -775 -776 -777 -786 -771 -777 -775 -507 -507 -791 -800 -815 -816 -811 -792 -778 -791 -801 -822 -824 -813 -805 -812 -811 -809 -841 -866 -862 -841 -818 -832 -841 -800 -492 -494 -776 -787 -779 -496 -469 -453 -449 -452 -456 -455 -458 -476 -471 -473 -492 -506 -509 -495 -481 -455 -449 -457 -456 -435 -393 -603 -582 -561 -526 -224 -169 -382 -329 -281 -267 -280 20 105 -98 -54 -10 -7 -20 -26 272 285 270 -67 -113 -95 -40 295 381 204 536 616 460 771 802 837 846 649 667 876 832 775 501 460 450 624 544 188 132 333 -28 126 8 -343 -159 -166 -381 -145 -162 -157 -161 -183 -206 -252 -244 -516 -545 -606 -399 -413 -422 -449 -470 -493 -788 -813 -802 -783 -791 -795 -829 -830 -776 -464 -457 -438 -403 -394 -608 -608 -388 -418 -462 -488 -508 -801 -802 -787 -786 -795 -798 -822 -813 -801 -801 -799 -774 -505 -502 -495 -506 -773 -510 -769 -510 -808 -807 -801 -807 -825 -841 -837 -815 -818 -791 -777 -798 -801 -507 -485 -500 -809 -857 -848 -856 -867 -845 -818 -805 -782 -510 -502 -498 -772 -506 -488 -502 -771 -487 -446 -452 -486 -776 -772 -491 -474 -484 -444 -423 -437 -434 -440 -395 -580 -530 -193 -272 -65 160 624 821 1056 1314 1558 1815 2106 2408 2536 2964 3606 3876 3720 3949 3887 3573 3709 3215 2788 2231 1833 1131 162 -550 -1129 -1613 -2083 -2642 -3403 -4193 -4701 -4961 -5123 -5145 -4858 -4962 -4691 -4388 -3970 -4218 -4158 -3728 -3470 -3410 -2765 -2591 -2166 -1506 -1405 -911 -762 -876 -806 -772 -785 -817 -853 -815 -459 -548 -131 5 91 -106 -96 -98 -90 -123 84 40 -288 -318 -368 -151 -206 -197 -170 -132 -381 -360 -365 -313 -257 80 -105 -102 -101 -89 -92 113 80 83 103 98 101 103 119 -105 -62 -16 272 279 285 -6 -5 -10 -2 288 304 289 274 266 -12 -23 -29 -37 -65 -99 -111 -45 285 313 306 302 343 355 344 310 310 329 138 190 201 169 149 157 172 176 198 224 248 243 219 197 194 230 244 518 545 533 519 548 601 396 395 639 408 449 468 448 459 480 507 801 840 864 866 877 646 891 879 894 685 728 750 751 767 1051 1058 1076 1119 1137 1127 1125 914 952 990 985 1019 1310 1339 1360 1357 1370 1390 1184 1227 1276 1548 1536 1550 1263 1272 1557 1601 1663 1447 1466 1501 1794 1857 1905 1916 1696 1742 2056 2091 2065 2057 2115 1927 1963 1961 1929 1927 1962 1977 2015 2034 2043 2321 2354 2381 2397 2360 2371 2422 2410 2370 2178 2273 2630 2651 2643 2606 2587 2574 2608 2610 2606 2292 2227 2208 2245 2274 2280 2245 2223 2221 2181 2405 2372 2317 1994 1957 2171 1923 2135 2076 1744 1667 1895 1905 1876 1522 1639 1574 1278 1191 1393 1308 962 921 1138 1060 716 891 799 446 629 562 242 182 138 342 272 -50 126 60 -270 -315 -378 -182 -241 -246 -537 -577 -631 -438 -505 -814 -844 -875 -657 -722 -766 -767 -1045 -1078 -1080 -1080 -1102 -1123 -914 -938 -967 -989 -979 -968 -960 -954 -961 -941 -931 -958 -1014 -1288 -1289 -1022 -1009 -1024 -1327 -1343 -1321 -1286 -988 -1001 -1290 -1359 -1393 -1356 -1317 -1305 -1309 -1303 -1285 -995 -988 -954 -941 -953 -989 -1013 -1000 -1003 -1007 -994 -987 -977 -991 -992 -979 -953 -897 -1101 -1120 -933 -983 -988 -983 -1006 -1021 -1287 -1298 -1024 -993 -923 -921 -958 -987 -1015 -1291 -1015 -991 -969 -974 -1003 -1016 -977 -900 -1137 -897 -1145 -920 -963 -973 -973 -944 -942 -953 -955 -897 -1111 -1131 -1134 -1114 -1124 -1148 -1146 -1137 -1116 -1136 -1108 -1063 -1029 -750 -750 -765 -1036 -1077 -1072 -1028 -732 -721 -735 -741 -724 -726 -744 -733 -708 -716 -720 -706 -717 -713 -718 -721 -730 -738 -702 -699 -729 -758 -754 -755 -750 -755 -755 -756 -748 -740 -741 -710 -660 -891 -866 -870 -888 -673 -689 -676 -891 -837 -824 -854 -861 -858 -845 -827 -838 -879 -878 -875 -882 -891 -873 -834 -830 -868 -885 -878 -849 -822 -822 -838 -840 -855 -875 -873 -855 -836 -837 -866 -884 -891 -881 -839 -812 -819 -874 -651 -894 -849 -826 -831 -846 -888 -893 -857 -830 -839 -881 -663 -664 -892 -877 -886 -889 -687 -700 -682 -887 -887 -883 -866 -866 -846 -822 -852 -832 -782 -504 -466 -463 -449 -403 -595 -555 -531 -229 -162 -350 -305 -320 -265 37 71 102 -107 -92 -105 -125 86 26 4 21 103 -60 284 337 163 213 236 249 564 395 416 438 464 452 395 590 517 226 197 159 373 293 -44 -128 64 -286 -323 -360 -381 -203 -523 -590 -618 -631 -404 -445 -454 -455 -426 -392 -426 -487 -783 -801 -798 -815 -863 -880 -641 -892 -879 -831 -478 -417 -466 -777 -787 -494 -482 -511 -485 -448 -444 -428 -416 -414 -427 -483 -769 -807 -823 -826 -789 -492 -500 -502 -490 -462 -418 -633 -415 -444 -476 -506 -480 -495 -774 -805 -849 -883 -869 -851 -821 -789 -772 -792 -806 -823 -836 -851 -824 -776 -475 -440 -402 -404 -422 -475 -490 -479 -450 -420 -412 -426 -472 -507 -771 -501 -508 -799 -799 -774 -497 -503 -773 -778 -804 -819 -510 -444 -434 -634 -548 -181 -322 82 277 528 471 655 1114 1308 1258 1515 2118 2243 2878 3014 3458 3754 4148 4171 4146 3818 3917 3674 3008 2450 1774 1322 607 5 -440 -1147 -1663 -2372 -2969 -3961 -4356 -4629 -4504 -4511 -4736 -4347 -4417 -4035 -4073 -4096 -3996 -3734 -3587 -2978 -2892 -2266 -2160 -1855 -1593 -1376 -923 -735 -886 -823 -802 -778 -775 -770 -634 -198 -291 57 -85 282 338 359 368 308 -55 122 65 -285 -367 -157 -148 -315 -280 -263 21 32 45 87 -65 325 370 140 182 176 359 263 257 300 324 308 274 266 286 365 184 226 186 136 382 169 241 543 549 544 553 573 573 580 561 553 576 600 592 592 580 578 585 592 619 406 439 411 395 393 429 474 508 489 429 392 630 420 474 503 494 770 510 803 843 828 797 768 795 858 670 715 743 734 703 683 710 698 681 644 686 760 752 729 1065 1115 1120 1065 1029 1041 1052 1080 1115 1132 1145 918 948 997 1001 1006 976 998 952 975 1008 1345 1366 1162 1396 1158 1164 1197 1200 1254 1547 1579 1589 1597 1607 1428 1431 1501 1799 1824 1796 1808 1824 1907 1708 1743 1756 1774 1774 2086 2134 2128 2149 1951 1969 1994 2046 2341 2381 2413 2396 2375 2360 2398 2206 2236 2219 2264 2286 2577 2580 2611 2658 2462 2441 2666 2662 2663 2638 2677 2472 2501 2508 2531 2545 2544 2498 2457 2458 2474 2455 2474 2475 2492 2505 2491 2441 2655 2606 2572 2566 2294 2247 2201 2360 2044 1961 2070 1745 1709 1673 1918 1875 1530 1461 1601 1230 1379 988 908 1146 1148 1060 668 850 803 477 391 568 215 149 336 283 -1 -65 112 34 -305 -165 -254 -587 -392 -407 -423 -429 -454 -775 -834 -874 -685 -742 -1045 -1114 -1138 -920 -904 -1148 -908 -952 -993 -985 -957 -937 -921 -914 -951 -1000 -1330 -1181 -1191 -1393 -1331 -1292 -1021 -1297 -1319 -1353 -1381 -1402 -1155 -1153 -1191 -1204 -1165 -1341 -1288 -1303 -1340 -1336 -1342 -1300 -1304 -1307 -1332 -1371 -1404 -1384 -1337 -1311 -1317 -1372 -1381 -1362 -1338 -1323 -1357 -1375 -1375 -1349 -1323 -1343 -1352 -1357 -1329 -1296 -1320 -1324 -1283 -1281 -1301 -1014 -1287 -1314 -1297 -1022 -978 -934 -919 -1142 -899 -906 -897 -911 -919 -931 -921 -924 -923 -903 -904 -903 -903 -906 -906 -1152 -1140 -1150 -932 -943 -953 -998 -1311 -993 -1137 -1061 -1062 -1094 -1127 -1141 -1146 -1127 -1112 -1108 -1103 -1096 -1065 -1061 -1053 -1044 -1099 -1131 -1130 -1099 -1035 -739 -737 -754 -1035 -1052 -1067 -1072 -1080 -1068 -1051 -1043 -754 -731 -721 -704 -715 -706 -679 -670 -667 -699 -733 -726 -683 -676 -682 -661 -671 -666 -651 -885 -827 -861 -666 -659 -872 -834 -801 -834 -872 -643 -678 -695 -690 -691 -674 -698 -680 -865 -844 -867 -878 -867 -858 -830 -861 -877 -643 -679 -689 -671 -651 -864 -813 -782 -505 -475 -493 -793 -801 -831 -800 -774 -802 -827 -842 -845 -512 -457 -467 -461 -475 -781 -512 -775 -780 -504 -484 -801 -814 -825 -833 -815 -788 -831 -809 -774 -511 -484 -432 -399 -606 -586 -624 -385 -615 -530 -131 -311 -276 13 57 77 113 -115 121 70 112 -86 -17 -20 -84 64 57 43 99 -102 267 287 336 131 232 539 588 390 458 446 484 469 443 615 603 535 538 240 206 151 365 -4 -46 -109 69 -274 -272 -288 -268 -308 -330 -367 -374 -155 -163 -205 -235 -543 -538 -543 -535 -582 -631 -453 -776 -842 -847 -856 -850 -847 -808 -508 -449 -455 -470 -488 -469 -458 -427 -435 -434 -436 -432 -436 -420 -422 -448 -465 -498 -782 -508 -487 -494 -511 -769 -788 -785 -476 -435 -407 -398 -412 -442 -460 -494 -785 -813 -811 -776 -465 -443 -437 -460 -479 -489 -498 -512 -784 -774 -787 -812 -789 -510 -501 -453 -434 -462 -472 -510 -788 -795 -492 -448 -424 -411 -439 -446 -442 -439 -437 -425 -417 -441 -436 -429 -412 -635 -588 -519 -206 -363 54 256 176 611 777 734 919 1379 1421 1762 2403 2521 3146 3286 3906 3795 3824 3825 3819 3783 3861 3224 2878 1931 1220 463 69 -396 -742 -1386 -1708 -2481 -3298 -4127 -4414 -4341 -4633 -4657 -4648 -4273 -4362 -4058 -4403 -4398 -4212 -3888 -3279 -2972 -2908 -2599 -2329 -2110 -1669 -1468 -1561 -1192 -1330 -1023 -1000 -962 -1117 -723 -847 -456 -587 -198 -321 34 100 -125 112 46 -274 -324 -130 -215 -517 -533 -251 -217 -163 -377 -364 -329 7 64 97 -118 -92 -79 -89 -116 94 69 58 36 7 23 27 -262 -270 -269 17 59 89 122 -97 -102 -120 -89 -55 -48 -49 -43 -58 -56 -71 -81 -79 -37 -5 274 279 302 301 323 316 316 336 373 348 355 366 365 378 361 358 360 131 136 149 371 348 323 135 206 228 244 517 546 540 558 540 555 558 573 573 599 623 637 416 466 458 401 637 612 410 430 471 496 491 781 786 786 825 875 863 655 679 688 715 721 712 700 740 1043 1094 1094 1123 896 896 925 905 920 966 1011 1281 1308 1354 1344 1389 1198 1228 1211 1225 1218 1241 1547 1608 1643 1645 1655 1651 1419 1445 1466 1522 1863 1703 1724 1729 1748 1765 1764 1753 2055 2101 2159 1956 1978 1979 2018 2019 2032 2320 2326 2342 2336 2350 2358 2406 2184 2179 2427 2178 2210 2234 2244 2262 2270 2272 2290 2564 2598 2622 2633 2624 2606 2570 2281 2274 2261 2209 2182 2409 2375 2363 2309 1975 2159 2077 1769 1753 1743 1714 1874 1496 1631 1550 1256 1200 1392 1342 992 1140 1043 728 672 852 507 398 554 198 314 -40 -77 -82 118 54 -290 -382 -204 -525 -577 -385 -427 -477 -788 -823 -859 -644 -681 -707 -741 -1050 -1081 -1102 -1148 -909 -933 -963 -997 -1288 -1326 -1348 -1348 -1340 -1351 -1371 -1407 -1187 -1208 -1190 -1184 -1161 -1160 -1405 -1163 -1184 -1201 -1225 -1247 -1224 -1199 -1209 -1211 -1204 -1225 -1202 -1178 -1407 -1174 -1186 -1183 -1184 -1171 -1162 -1172 -1178 -1179 -1160 -1401 -1388 -1395 -1396 -1156 -1202 -1211 -1201 -1196 -1213 -1200 -1189 -1198 -1176 -1169 -1178 -1173 -1186 -1154 -1388 -1393 -1376 -1374 -1357 -1361 -1360 -1327 -1315 -1298 -1300 -1297 -1293 -1295 -1324 -1321 -1331 -1318 -1318 -1314 -1320 -1316 -1327 -1318 -1334 -1361 -1378 -1339 -1308 -1283 -1283 -1012 -999 -978 -987 -1001 -1007 -976 -964 -980 -981 -963 -965 -950 -962 -993 -1016 -1002 -970 -956 -960 -966 -961 -965 -960 -963 -940 -1150 -1134 -1148 -897 -1128 -1118 -1116 -1121 -1122 -1128 -1095 -1070 -1062 -1062 -1052 -1065 -1053 -1054 -1062 -1069 -1094 -1094 -1046 -736 -725 -736 -762 -1033 -1040 -1050 -1070 -1045 -1025 -767 -768 -767 -1029 -765 -1041 -1039 -1040 -1055 -1055 -754 -718 -704 -721 -736 -764 -749 -743 -750 -1025 -1057 -1040 -1032 -742 -709 -735 -741 -1032 -1026 -1033 -1036 -1025 -1050 -1074 -1100 -1113 -1115 -1112 -1081 -1049 -758 -716 -703 -701 -719 -742 -768 -1055 -1066 -1057 -1035 -710 -662 -889 -650 -693 -715 -735 -690 -673 -701 -679 -688 -666 -685 -684 -888 -894 -888 -643 -888 -869 -648 -896 -871 -846 -813 -784 -464 -411 -613 -591 -566 -541 -532 -517 -227 -174 -139 -336 -284 -267 24 4 35 47 41 -271 -331 -355 -319 -258 41 -117 -61 288 377 161 196 206 246 570 635 385 604 545 229 180 158 138 341 291 -18 -77 95 1 -318 -354 -141 -208 -232 -521 -556 -572 -605 -625 -640 -399 -420 -490 -822 -844 -830 -807 -825 -848 -647 -700 -754 -756 -749 -750 -735 -703 -696 -702 -687 -652 -868 -847 -847 -850 -865 -648 -671 -698 -686 -709 -741 -764 -1025 -754 -745 -763 -1025 -1025 -1025 -1028 -768 -745 -728 -727 -741 -736 -723 -719 -718 -685 -658 -894 -891 -664 -698 -715 -703 -669 -896 -871 -860 -852 -890 -675 -692 -687 -675 -895 -866 -858 -865 -879 -890 -657 -677 -692 -696 -681 -656 -884 -866 -868 -857 -856 -877 -893 -891 -875 -826 -496 -454 -455 -429 -588 -198 3 -46 222 453 687 908 1360 1606 1878 1985 2640 3088 3268 3570 3932 3916 3875 3551 3679 3405 2749 2177 1481 699 -42 -430 -899 -1567 -1788 -2479 -3325 -4363 -4527 -4981 -4821 -4850 -5128 -4763 -4540 -4301 -4285 -4331 -4266 -3985 -3573 -3427 -2811 -2481 -2407 -2089 -1805 -1578 -1399 -993 -911 -1134 -1122 -1102 -1102 -1058 -688 -787 -636 -232 -379 -273 52 45 45 33 1 -314 -134 -199 -522 -588 -613 -603 -558 -527 -217 -158 -348 -295 17 73 108 111 124 -127 -121 107 85 81 34 -272 -258 42 53 94 125 -128 124 -113 -111 -107 -80 -50 -7 265 260 260 274 282 272 -2 275 303 292 260 272 302 350 381 151 134 362 336 349 131 149 175 177 153 171 165 168 213 248 239 512 529 530 254 535 546 583 605 594 586 594 588 598 613 622 614 613 629 386 431 444 452 459 490 467 484 501 790 801 837 888 646 675 667 672 680 713 740 748 1030 752 761 1052 1094 1113 1150 912 912 902 947 1018 1308 1344 1364 1348 1336 1357 1395 1154 1159 1184 1211 1240 1539 1580 1624 1607 1646 1426 1420 1423 1417 1453 1518 1838 1867 1896 1690 1731 1759 1771 1760 1763 1754 1768 2061 2100 2134 2170 1960 2007 2019 2030 2305 2334 2363 2381 2399 2408 2421 2414 2394 2366 2388 2182 2231 2259 2279 2297 2296 2566 2263 2231 2234 2246 2247 2239 2242 2255 2246 2227 2205 2203 2180 2380 2327 2025 1991 1967 1924 2119 1789 1725 1912 1852 1525 1444 1628 1563 1249 1191 1379 1309 990 916 1111 1025 667 808 477 419 614 545 214 146 349 314 262 -52 -124 24 -317 -371 -158 -204 -545 -639 -409 -388 -399 -452 -780 -840 -863 -885 -667 -725 -765 -1037 -1048 -1071 -1085 -1108 -1130 -897 -910 -900 -900 -899 -903 -907 -932 -968 -990 -1011 -1008 -1014 -1004 -1004 -1017 -1291 -1297 -1294 -1297 -1291 -1295 -1309 -1339 -1372 -1402 -1397 -1362 -1331 -1299 -1293 -1290 -1313 -1318 -1304 -1304 -1310 -1307 -1298 -1304 -1307 -1294 -1292 -1294 -1289 -1015 -1002 -1008 -1009 -1006 -1282 -1019 -1005 -992 -991 -1012 -1020 -1009 -975 -977 -965 -969 -967 -965 -962 -954 -943 -944 -955 -983 -988 -969 -956 -950 -945 -973 -990 -1001 -1000 -1004 -983 -970 -965 -950 -948 -960 -957 -969 -994 -1001 -974 -922 -1147 -1109 -1109 -1147 -917 -904 -904 -906 -1141 -1122 -1107 -1105 -1103 -1118 -900 -1149 -1135 -1116 -1110 -1086 -1071 -1083 -1105 -1110 -1096 -1082 -1072 -1038 -751 -743 -744 -751 -717 -677 -673 -699 -684 -675 -664 -654 -896 -668 -674 -679 -675 -650 -895 -662 -646 -876 -892 -663 -660 -686 -682 -679 -676 -896 -875 -645 -652 -894 -645 -650 -668 -660 -874 -869 -874 -833 -809 -832 -835 -828 -858 -854 -856 -862 -878 -850 -857 -784 -803 -830 -871 -871 -892 -856 -865 -854 -878 -896 -642 -840 -815 -823 -855 -874 -854 -829 -819 -830 -825 -842 -848 -844 -838 -851 -865 -875 -863 -828 -837 -829 -842 -820 -806 -786 -783 -824 -862 -844 -831 -827 -786 -770 -475 -451 -420 -396 -616 -583 -555 -239 -200 -161 -375 -340 -314 -271 27 48 92 125 -104 -106 -74 -72 -60 -83 101 45 46 58 117 -80 -29 308 145 515 628 409 400 633 638 627 385 628 617 591 543 251 188 367 292 -35 118 30 -317 -375 -157 -217 -241 -555 -554 -588 -595 -389 -408 -412 -399 -408 -466 -501 -797 -848 -892 -661 -685 -698 -739 -1034 -1054 -1080 -1083 -1064 -1029 -751 -722 -711 -711 -730 -701 -695 -683 -648 -868 -853 -879 -656 -674 -680 -701 -754 -1031 -757 -750 -756 -1050 -1048 -1029 -755 -728 -725 -679 -892 -867 -857 -859 -871 -641 -893 -873 -878 -643 -894 -647 -652 -896 -888 -656 -691 -689 -673 -700 -700 -692 -683 -646 -854 -834 -842 -891 -670 -711 -708 -706 -693 -676 -654 -887 -860 -872 -883 -890 -647 -662 -654 -882 -846 -512 -408 -517 -352 93 318 536 786 1048 1006 1255 1803 2107 2225 2899 3354 3475 3936 3960 3885 3530 3657 3426 2801 2301 1918 911 381 -592 -935 -1654 -2139 -2443 -3213 -4060 -4937 -5237 -5408 -5453 -5487 -5388 -5148 -4872 -4711 -4728 -4681 -4446 -3808 -3651 -3032 -2892 -2240 -2118 -1515 -1228 -1004 -1079 -708 -666 -688 -711 -725 -695 -891 -800 -409 -515 -153 -322 -266 17 -260 -289 -331 -153 -255 -605 -400 -428 -439 -405 -605 -574 -537 -242 -205 -149 -363 -309 -291 -285 -275 11 30 32 2 -307 -335 -334 -340 -329 -300 -312 -325 -313 -291 0 46 77 88 64 68 86 108 -120 -119 -118 -108 -111 -106 -92 -68 -32 -32 -40 -59 -41 -17 -30 -11 -12 276 297 352 339 314 302 293 299 304 307 326 335 363 357 355 369 161 169 178 185 202 225 227 243 228 216 231 249 521 541 560 586 587 591 610 621 391 404 411 402 632 387 431 469 508 786 792 820 800 793 799 816 853 640 691 751 765 1051 1054 1047 1045 1051 1069 1080 1105 902 946 988 1285 1312 1325 1306 1306 1340 1365 1396 1185 1263 1559 1605 1631 1653 1651 1428 1461 1462 1488 1513 1828 1894 1686 1724 1707 1700 1716 1763 2052 2080 2092 2110 2125 2162 1946 1989 2022 2021 2046 2307 2046 2045 2334 2356 2364 2383 2393 2390 2392 2412 2418 2187 2194 2207 2224 2208 2192 2189 2193 2205 2224 2220 2185 2418 2406 2401 2386 2361 2047 2007 1971 1959 1952 2160 2096 1759 1689 1875 1848 1819 1513 1432 1624 1575 1277 1218 1361 989 1132 1057 755 711 894 810 468 384 599 550 215 364 270 -83 89 27 -257 -291 -330 -135 -217 -579 -402 -460 -488 -773 -793 -827 -862 -660 -701 -1028 -1077 -1103 -1112 -1139 -933 -958 -970 -942 -952 -945 -976 -992 -1001 -997 -1013 -1285 -1001 -1012 -1015 -1021 -1288 -1295 -1306 -1295 -1312 -1317 -1326 -1335 -1311 -1308 -1333 -1345 -1357 -1381 -1387 -1367 -1377 -1382 -1155 -1175 -1157 -1397 -1161 -1204 -1211 -1209 -1202 -1201 -1198 -1173 -1402 -1388 -1398 -1154 -1403 -1396 -1379 -1370 -1354 -1348 -1346 -1353 -1346 -1341 -1344 -1346 -1353 -1350 -1337 -1342 -1358 -1381 -1408 -1384 -1333 -1009 -1004 -1020 -1006 -1018 -1318 -1325 -1022 -1018 -1283 -1019 -1281 -1023 -1019 -1021 -1297 -1290 -1284 -1288 -1005 -966 -970 -973 -960 -989 -986 -971 -946 -929 -912 -914 -912 -1145 -1139 -1148 -1146 -1152 -948 -961 -941 -911 -903 -903 -897 -949 -987 -960 -1151 -1134 -1143 -909 -930 -902 -1131 -1128 -1101 -1081 -1091 -1073 -1032 -759 -761 -757 -738 -761 -1045 -1064 -1047 -748 -726 -712 -716 -741 -749 -1035 -1042 -1043 -1031 -1050 -1067 -1030 -754 -757 -1040 -1049 -1061 -766 -712 -709 -688 -703 -727 -767 -763 -734 -750 -766 -1027 -724 -728 -744 -707 -677 -886 -895 -878 -895 -669 -689 -700 -654 -869 -836 -841 -884 -892 -895 -888 -877 -847 -832 -838 -836 -854 -870 -641 -643 -859 -870 -866 -873 -868 -868 -875 -858 -866 -857 -868 -876 -850 -864 -860 -894 -653 -641 -877 -842 -844 -825 -817 -841 -823 -796 -483 -427 -634 -599 -616 -559 -255 -213 -173 -168 -374 -309 -259 23 40 43 84 -94 -31 -28 264 292 288 -8 -94 103 96 -121 -73 259 347 176 528 638 417 399 410 462 508 784 511 480 424 403 634 589 556 540 229 137 287 -75 76 17 -267 -323 -154 -228 -543 -556 -553 -522 -519 -534 -575 -621 -426 -458 -489 -772 -500 -501 -506 -785 -821 -835 -878 -666 -676 -666 -886 -853 -833 -819 -833 -831 -784 -451 -427 -443 -458 -483 -779 -792 -795 -805 -830 -868 -894 -663 -654 -644 -889 -884 -647 -649 -888 -857 -856 -886 -658 -691 -697 -661 -873 -868 -874 -867 -869 -855 -860 -862 -646 -649 -889 -830 -822 -846 -824 -511 -474 -459 -482 -505 -500 -480 -510 -780 -788 -501 -506 -506 -505 -478 -443 -438 -465 -458 -444 -393 -583 -597 -626 -632 -561 -183 -335 59 -12 213 445 684 925 1400 1609 1857 1920 2302 2719 3399 3568 4153 4018 4037 3981 4133 3967 3700 3055 2488 1791 1009 237 -161 -700 -1173 -1672 -2577 -3405 -4206 -4701 -4743 -5140 -5175 -4863 -4955 -4700 -4232 -4428 -4383 -4020 -3797 -3676 -3028 -2925 -2284 -1933 -1830 -1258 -1005 -1051 -882 -792 -773 -781 -802 -814 -789 -431 -577 -222 -357 51 -69 262 286 284 -31 -90 90 17 -305 -348 -373 -349 -369 -343 -273 48 106 -120 -82 -64 -28 -13 280 308 284 -46 -106 -123 118 -95 -12 264 -33 -65 -91 -70 -21 301 356 128 158 160 158 157 176 220 213 189 172 147 375 379 141 373 366 364 372 359 136 207 229 243 212 187 191 237 252 206 214 220 519 561 575 592 534 548 557 562 551 595 625 636 396 407 430 468 463 437 476 474 482 477 775 791 787 814 853 851 847 844 833 852 870 694 709 694 658 676 740 1042 1024 1040 1075 1102 904 1147 904 1107 1116 1120 902 946 994 976 978 1022 1333 1378 1352 1362 1350 1384 1182 1228 1262 1541 1551 1591 1627 1427 1476 1463 1450 1460 1534 1859 1894 1912 1909 1916 1703 1765 1781 2053 2113 2150 2140 2123 2117 2139 2147 1926 2009 2349 2419 2197 2191 2398 2369 2398 2425 2404 2429 2203 2225 2248 2277 2569 2593 2588 2574 2273 2267 2277 2577 2597 2301 2271 2573 2607 2291 2263 2270 2565 2565 2299 2284 2263 2229 2203 2409 2338 2033 2031 2032 1969 2143 2059 1730 1665 1829 1811 1502 1650 1275 1186 1397 1322 977 907 1127 1075 722 885 784 426 595 545 225 203 168 142 346 281 -55 -89 97 15 -331 -131 -170 -237 -538 -595 -610 -614 -628 -621 -405 -492 -843 -658 -678 -701 -696 -706 -690 -694 -708 -710 -733 -733 -758 -1032 -1072 -1110 -1141 -905 -1150 -1121 -1136 -1137 -929 -932 -955 -969 -979 -953 -952 -958 -1002 -1312 -1300 -971 -936 -941 -1147 -1114 -1109 -898 -917 -927 -923 -948 -939 -1148 -1130 -899 -922 -909 -949 -933 -913 -1117 -1038 -751 -752 -1060 -1087 -1095 -1054 -760 -1026 -1048 -1056 -1039 -1035 -749 -732 -722 -715 -748 -768 -1051 -1053 -763 -764 -754 -754 -718 -698 -711 -723 -725 -732 -716 -721 -1030 -1045 -1038 -764 -741 -714 -680 -714 -767 -1038 -1070 -1090 -1067 -762 -713 -687 -664 -643 -681 -714 -749 -755 -750 -722 -682 -683 -705 -720 -715 -681 -891 -866 -885 -879 -895 -651 -664 -694 -662 -887 -868 -830 -816 -782 -801 -810 -823 -814 -783 -788 -500 -510 -793 -788 -779 -802 -818 -790 -781 -801 -841 -870 -886 -870 -830 -503 -474 -497 -780 -804 -782 -799 -801 -825 -848 -894 -878 -846 -839 -836 -844 -847 -813 -805 -828 -859 -875 -851 -793 -812 -821 -824 -822 -793 -485 -443 -467 -769 -805 -827 -786 -470 -406 -397 -429 -501 -789 -499 -502 -512 -512 -797 -787 -492 -460 -470 -466 -434 -435 -440 -422 -390 -605 -590 -594 -564 -562 -537 -532 -537 -514 -158 -335 14 68 68 51 73 82 93 118 -75 259 261 -72 113 64 52 78 103 -37 351 202 517 610 637 407 394 628 621 390 431 473 448 632 600 597 574 543 240 160 316 -14 -85 -127 78 37 -290 -363 -181 -212 -219 -517 -523 -217 -191 -230 -547 -621 -387 -635 -620 -395 -452 -501 -772 -492 -451 -438 -397 -388 -409 -421 -414 -399 -636 -625 -638 -633 -621 -397 -426 -461 -487 -510 -790 -819 -870 -645 -851 -511 -475 -482 -493 -470 -435 -426 -432 -432 -452 -501 -804 -776 -450 -403 -396 -609 -565 -587 -426 -502 -791 -774 -507 -499 -490 -435 -445 -435 -396 -624 -625 -411 -396 -608 -618 -620 -396 -459 -510 -494 -456 -416 -435 -435 -434 -419 -399 -402 -610 -556 -206 -143 -325 62 -10 190 638 841 1072 1289 1230 1480 1782 2382 2482 3131 3318 3950 4201 4015 4022 4206 3785 3575 3254 2733 2324 1579 814 -85 -538 -880 -1304 -1691 -2474 -3274 -4108 -4467 -4689 -4498 -4501 -4683 -4278 -4397 -4381 -4431 -4361 -4206 -3936 -3327 -3197 -2840 -2296 -2041 -2055 -1796 -1545 -1367 -1004 -946 -937 -911 -1115 -764 -891 -487 -598 -193 -331 11 118 -51 -49 -113 58 -281 -336 -371 -145 -178 -210 -232 -253 -533 -552 -249 -148 -305 17 65 105 114 112 112 106 93 86 71 54 13 -318 -362 -331 13 98 122 113 -116 -101 -116 -96 -75 -52 -43 -61 -81 -89 -67 -32 -1 -13 -70 -125 126 -117 -88 -29 -5 -17 -33 -34 -5 266 -4 -7 290 349 166 129 347 356 147 136 176 182 181 169 192 159 168 128 138 130 380 134 228 542 583 614 568 528 239 574 390 431 428 440 462 504 484 433 470 772 814 837 866 825 509 498 773 510 776 854 650 676 729 710 672 649 732 1053 1086 1105 1117 911 943 978 997 965 969 1000 1316 1377 1406 1194 1179 1221 1279 1551 1279 1247 1255 1269 1572 1606 1443 1516 1821 1846 1845 1843 1847 1885 1900 1916 1719 2063 2153 1936 1982 1988 2016 2006 1985 2036 2323 2331 2327 2360 2378 2384 2388 2417 2423 2415 2412 2395 2399 2184 2217 2203 2208 2207 2223 2239 2258 2279 2272 2264 2249 2249 2237 2225 2202 2182 2401 2373 2343 2022 1953 2157 2131 2082 1790 1784 1737 1672 1845 1508 1454 1639 1540 1196 1384 1327 1011 925 1096 753 707 894 769 636 255 181 152 360 -3 -99 83 -264 -337 -349 -363 -172 -551 -406 -471 -769 -835 -651 -696 -702 -707 -745 -1066 -906 -970 -1014 -1315 -1349 -1369 -1347 -1321 -1326 -1354 -1383 -1391 -1406 -1166 -1181 -1181 -1165 -1390 -1383 -1374 -1382 -1181 -1198 -1184 -1187 -1222 -1218 -1216 -1222 -1215 -1216 -1221 -1213 -1222 -1236 -1273 -1270 -1263 -1242 -1214 -1167 -1395 -1404 -1173 -1179 -1170 -1405 -1404 -1153 -1174 -1187 -1199 -1196 -1183 -1209 -1225 -1257 -1246 -1212 -1203 -1188 -1163 -1402 -1390 -1161 -1194 -1189 -1211 -1220 -1216 -1187 -1155 -1384 -1374 -1372 -1367 -1350 -1344 -1356 -1365 -1360 -1377 -1158 -1159 -1396 -1365 -1351 -1348 -1355 -1341 -1315 -1290 -998 -975 -982 -989 -1009 -1018 -979 -908 -1086 -1058 -1078 -1128 -919 -924 -903 -1119 -1078 -1066 -1068 -1086 -1120 -1143 -1121 -1123 -1133 -1141 -1096 -1055 -1050 -1061 -1058 -1041 -1048 -1075 -1074 -1041 -762 -755 -757 -743 -721 -705 -679 -661 -691 -735 -765 -768 -757 -754 -732 -687 -642 -647 -676 -694 -687 -664 -664 -682 -714 -740 -708 -676 -655 -896 -875 -873 -881 -888 -653 -677 -682 -682 -689 -688 -675 -896 -882 -869 -881 -891 -871 -864 -855 -841 -853 -852 -855 -878 -862 -845 -842 -848 -838 -818 -826 -834 -815 -812 -825 -818 -790 -799 -824 -854 -855 -855 -830 -796 -773 -498 -490 -489 -463 -432 -441 -491 -783 -774 -492 -454 -427 -403 -638 -588 -520 -215 -181 -176 -180 -199 -198 -137 -325 -260 37 35 39 13 24 55 100 -126 81 -285 -349 -321 24 77 -109 -47 256 340 153 154 379 136 168 229 516 535 539 528 192 145 137 373 338 278 -34 -39 -78 119 83 31 13 -267 -319 -373 -164 -221 -228 -231 -228 -211 -245 -536 -563 -596 -615 -627 -419 -489 -814 -814 -825 -819 -811 -801 -490 -440 -422 -417 -430 -435 -386 -592 -559 -582 -618 -389 -436 -438 -452 -465 -485 -771 -769 -482 -478 -508 -808 -801 -832 -834 -787 -466 -433 -461 -493 -487 -464 -433 -431 -421 -422 -455 -498 -778 -771 -499 -486 -463 -453 -425 -412 -419 -421 -421 -431 -416 -405 -409 -400 -392 -387 -385 -402 -440 -445 -429 -431 -423 -428 -423 -397 -396 -617 -578 -519 -180 -328 47 -29 164 619 818 1027 1023 1213 1434 1738 2344 2467 3106 3322 3722 4149 4159 4124 3781 3893 3674 3341 2846 1976 1246 502 -127 -596 -718 -1406 -1772 -2832 -3648 -4181 -4465 -4348 -4338 -4307 -4249 -4410 -4036 -3992 -4031 -4022 -4132 -3582 -3201 -3120 -2546 -2250 -1956 -1672 -1453 -1542 -1397 -1287 -998 -986 -966 -939 -1124 -739 -829 -385 -207 -335 7 98 -64 -50 -110 61 -285 -340 -131 -153 -216 -531 -533 -229 -133 -318 -269 29 79 107 -124 -103 -97 -89 -93 -106 127 122 -128 -121 103 74 81 99 108 115 126 -118 -109 -96 -52 -7 278 264 -23 -30 -27 -12 287 305 288 266 268 279 285 -4 -31 -25 -22 285 339 382 134 139 375 344 336 148 177 184 186 217 221 229 231 512 572 598 570 549 553 542 568 614 396 401 401 396 384 638 385 632 428 466 467 491 784 795 782 506 462 467 784 861 665 718 735 719 704 715 684 673 716 1029 1064 1112 1129 925 971 982 989 1003 987 987 1002 1005 1020 1333 1365 1405 1202 1232 1238 1259 1541 1587 1609 1601 1630 1432 1488 1516 1527 1518 1523 1823 1848 1895 1706 1721 1756 1791 2056 1782 2057 2100 2145 2160 1932 1987 2316 2361 2374 2384 2181 2198 2202 2223 2246 2280 2564 2586 2602 2623 2635 2668 2673 2650 2631 2632 2673 2450 2495 2514 2529 2531 2538 2542 2527 2488 2453 2446 2451 2435 2653 2613 2582 2268 2265 2272 2221 2400 2340 2308 2021 1977 2163 2067 1713 1669 1881 1819 1471 1623 1540 1221 1406 1298 950 1142 1099 754 659 839 468 576 201 148 372 331 293 -10 -58 110 44 -299 -156 -526 -605 -400 -433 -466 -501 -799 -842 -663 -736 -1033 -1037 -1031 -1039 -1060 -1084 -1144 -924 -946 -917 -923 -959 -1016 -1297 -1319 -1315 -1283 -1014 -1297 -1323 -1337 -1355 -1370 -1383 -1153 -1172 -1197 -1197 -1159 -1378 -1383 -1401 -1173 -1186 -1201 -1218 -1188 -1397 -1405 -1159 -1167 -1403 -1399 -1404 -1377 -1366 -1380 -1385 -1381 -1364 -1353 -1346 -1364 -1358 -1356 -1352 -1359 -1368 -1368 -1342 -1312 -1298 -1307 -1354 -1353 -1338 -1338 -1338 -1322 -1320 -1327 -1364 -1163 -1167 -1383 -1355 -1326 -1300 -1328 -1379 -1388 -1372 -1340 -1336 -1322 -1319 -1305 -1286 -1007 -1007 -1282 -1312 -1296 -1007 -1004 -1016 -991 -975 -1005 -1282 -1288 -1283 -1024 -1284 -997 -972 -977 -972 -976 -971 -951 -929 -919 -899 -1139 -1149 -1142 -904 -1152 -1123 -1096 -1096 -1097 -1107 -1102 -1092 -1085 -1077 -1069 -1046 -1046 -1064 -1068 -1045 -749 -739 -1025 -1037 -1048 -1031 -1038 -1045 -733 -679 -651 -648 -673 -690 -713 -706 -665 -650 -642 -892 -673 -686 -670 -896 -643 -674 -687 -703 -715 -711 -694 -689 -708 -725 -718 -661 -883 -853 -850 -853 -846 -851 -862 -879 -873 -875 -888 -896 -853 -809 -829 -840 -846 -810 -799 -815 -837 -874 -895 -883 -860 -842 -811 -809 -795 -794 -808 -819 -814 -823 -817 -837 -860 -857 -845 -827 -812 -841 -858 -837 -855 -830 -815 -509 -498 -490 -774 -486 -490 -504 -468 -470 -433 -620 -619 -639 -417 -399 -586 -249 -196 -173 -371 -343 -303 -309 -284 29 84 122 -96 -83 -120 108 39 48 59 76 103 -53 -5 330 145 158 136 137 202 581 409 416 416 609 583 537 517 254 514 187 375 290 -65 127 90 52 1 -305 -329 -358 -174 -214 -221 -194 -198 -203 -255 -550 -609 -390 -426 -435 -453 -470 -503 -783 -847 -652 -656 -853 -826 -830 -823 -805 -792 -507 -490 -487 -500 -502 -485 -451 -452 -473 -456 -457 -475 -779 -837 -871 -858 -832 -819 -820 -834 -857 -849 -825 -825 -810 -791 -786 -508 -468 -452 -458 -462 -501 -777 -788 -784 -796 -856 -685 -704 -878 -794 -504 -770 -776 -506 -492 -495 -481 -480 -466 -484 -791 -811 -803 -505 -468 -445 -440 -459 -481 -487 -486 -503 -509 -491 -437 -627 -562 -250 -173 -327 87 285 527 498 727 935 1396 1648 1683 2029 2440 3137 3285 3579 3730 3747 3725 3950 3583 3622 2997 2469 2071 1336 586 -312 -792 -928 -1613 -1967 -2801 -3907 -4451 -4710 -4559 -4546 -4515 -4666 -4266 -4364 -4052 -4376 -4087 -4128 -3529 -3434 -3150 -2845 -2250 -2137 -1828 -1613 -1201 -1348 -1022 -950 -904 -1137 -1113 -1068 -720 -819 -635 -226 -337 9 50 79 90 86 3 -329 -371 -169 -513 -599 -630 -639 -570 -231 -215 -184 -132 -332 -268 57 103 107 90 87 99 95 72 53 17 -283 -301 -279 9 29 43 77 80 97 -102 -70 -51 -42 -45 -48 -54 -84 -82 -64 -46 -67 -86 -99 -82 -53 -26 264 270 265 266 277 289 330 357 347 334 330 322 327 350 378 134 154 163 373 128 179 233 238 253 217 178 185 226 545 621 403 633 405 408 413 406 443 430 432 430 488 494 793 817 838 841 865 829 841 859 873 875 675 682 692 657 668 732 1059 1058 1080 1073 1073 1081 1095 1094 902 949 996 1295 1317 1300 1325 1322 1324 1353 1160 1381 1154 1211 1269 1577 1619 1582 1592 1626 1423 1440 1451 1460 1497 1522 1517 1534 1821 1846 1867 1885 1917 1709 1744 2074 2138 2144 2108 2112 2134 2158 1961 2021 2310 2333 2327 2348 2386 2417 2204 2232 2246 2258 2281 2564 2581 2595 2607 2613 2614 2624 2636 2651 2671 2679 2659 2645 2630 2623 2614 2622 2626 2616 2607 2585 2297 2236 2182 2386 2327 2044 2023 1958 2116 1764 1698 1896 1848 1802 1500 1428 1595 1231 1396 1336 1001 909 1072 747 695 893 838 506 424 579 226 167 346 271 -31 -38 -75 104 35 -273 -365 -212 -549 -604 -390 -420 -424 -438 -483 -798 -856 -892 -691 -1026 -1095 -1095 -1078 -1061 -1065 -1106 -1151 -946 -948 -958 -1015 -1301 -1313 -1295 -1294 -1304 -1024 -1000 -1292 -1328 -1352 -1369 -1369 -1360 -1337 -1321 -1318 -1317 -1313 -1313 -1318 -1313 -1302 -1295 -1297 -1314 -1336 -1349 -1369 -1351 -1289 